"¦Ë1, Ch1","¦Ë2, Ch1","¦Ë1, Ch2","¦Ë2, Ch2","¦Ë1, Ch3","¦Ë2, Ch3","¦Ë1, Ch4","¦Ë2, Ch4","¦Ë1, Ch5","¦Ë2, Ch5","¦Ë1, Ch6","¦Ë2, Ch6","¦Ë1, Ch7","¦Ë2, Ch7","¦Ë1, Ch8","¦Ë2, Ch8","¦Ë1, Ch9","¦Ë2, Ch9","¦Ë1, Ch10","¦Ë2, Ch10","¦Ë1, Ch11","¦Ë2, Ch11","¦Ë1, Ch12","¦Ë2, Ch12","¦Ë1, Ch13","¦Ë2, Ch13","¦Ë1, Ch14","¦Ë2, Ch14","¦Ë1, Ch15","¦Ë2, Ch15","¦Ë1, Ch16","¦Ë2, Ch16","¦Ë1, Ch17","¦Ë2, Ch17","¦Ë1, Ch18","¦Ë2, Ch18","¦Ë1, Ch19","¦Ë2, Ch19","¦Ë1, Ch20","¦Ë2, Ch20","¦Ë1, Ch21","¦Ë2, Ch21","¦Ë1, Ch22","¦Ë2, Ch22","¦Ë1, Ch23","¦Ë2, Ch23","¦Ë1, Ch24","¦Ë2, Ch24"
0,0,0,0,0,0,0,0,0,0,0,0,0,0,0,0,0,0,0,0,0,0,0,0,0,0,0,0,0,0,0,0,0,0,0,0,0,0,0,0,0,0,0,0,0,0,0,0
-0.0065,0.0187,0,0,0.0165,0.0057,0.0037,0.0142,0.0365,0.022,-0.0453,-0.027,0.0035,0.0195,0.0023,0.0008,-0.0185,-0.0165,0.037,-0.0235,0.0023,0.001,-0.0038,0.0025,-0.04,-0.0478,0.0465,-0.021,0.0027,0.0005,0.0035,-0.0005,0.0237,0.019,0.003,0.0015,0,0.0008,0.0048,-0.0053,0.002,0.0023,0.0023,0.0025,0.0013,-0.0013,0.0023,0.0025
0.0023,0.025,0.0352,-0.0245,0.076,0.0115,0.0002,0.0075,-0.0012,0.0205,-0.0188,-0.027,0.0145,0.0793,0.0015,0.0027,-0.008,-0.06,0.009,0.0248,-0.001,0,-0.0042,-0.0002,-0.0328,-0.053,0.0172,0,0.0017,0.0003,0.0045,-0.0015,0.001,-0.003,0.0027,0.0023,-0.0012,-0.002,0.0033,0.0002,0.0078,0.0035,0.0027,0.0037,-0.0045,-0.0057,-0.0005,0.0012
-0.033,0.0187,0.0057,0.0063,0.0107,0.042,0.001,-0.002,0.0023,0.019,-0.0278,-0.0322,0.0827,0.0528,-0.0008,0.0008,-0.0237,-0.045,0.0773,0.014,0.0005,-0.0005,-0.0003,-0.001,-0.0082,-0.0565,-0.0033,-0.0142,0.0017,0.0003,-0.0028,-0.0033,0.0195,0.057,0.0037,0.003,-0.0035,-0.0017,-0.0038,-0.0015,0.002,0.0032,0.003,0.0027,-0.0088,-0.0043,-0.0008,0.0022
0.01,0.0693,-0.0165,-0.0245,0.1022,0.0235,-0.0043,0.0032,0.0165,-0.0085,-0.0368,-0.011,0.07,0.0078,0.004,0.002,-0.016,-0.0688,0.05,0.051,-0.0002,-0.0008,-0.005,-0.0002,-0.0187,-0.0453,-0.0068,0.054,-0.0005,-0.0015,-0.01,-0.0025,0.001,0.0223,0.0017,0.001,-0.0057,-0.0052,-0.0053,-0.015,0.0065,0.0095,0.0013,0.002,-0.0157,-0.0128,-0.0023,-0.0025
-0.0017,0.0207,0.0293,-0.075,0.0697,0.0115,0.004,-0.0053,-0.0228,0.003,-0.0048,0.017,0.0533,0.0155,-0.001,0.0035,-0.039,-0.0068,0.06,0.079,-0.004,-0.0023,-0.0103,-0.0032,-0.009,-0.0343,-0.0068,-0.0245,-0.0018,-0.0045,-0.0005,-0.0013,0.0332,0.0312,0.0015,0,-0.01,-0.007,-0.0077,-0.002,-0.004,-0.0035,-0.0008,0.0002,-0.0197,-0.0168,-0.0057,-0.0023
-0.0065,0,-0.0273,-0.0477,0.0393,0.042,-0.0093,-0.0003,-0.0092,0.0518,-0.0095,-0.0375,0.0492,0.0195,-0.0018,-0.0012,-0.061,-0.0328,0.0738,0.0282,-0.0055,-0.005,-0.0092,-0.0057,-0.0447,-0.0918,0.028,0.0665,-0.006,-0.0055,-0.003,-0.0058,0.001,-0.0088,-0.0023,-0.0015,-0.014,-0.0107,-0.0088,-0.0267,-0.0008,-0.0098,-0.0032,-0.002,-0.0255,-0.0205,-0.0072,-0.0045
0.0023,0.0187,-0.0273,-0.0125,0.0107,-0.0057,-0.0018,-0.002,-0.0012,0.047,0.0047,-0.0322,0.022,0.0078,-0.0068,-0.004,-0.0053,-0.051,0.0403,-0.0235,-0.0082,-0.0065,-0.0112,-0.0082,-0.021,-0.024,0.0245,0.03,-0.0083,-0.0082,-0.0025,-0.008,-0.0375,0,-0.0055,-0.0042,-0.0157,-0.0128,-0.019,-0.0225,-0.0032,-0.0025,-0.0048,-0.0043,-0.0335,-0.0293,-0.012,-0.0053
-0.033,0.037,0.0477,-0.0477,0.0165,0.0483,-0.008,-0.003,-0.0423,0.047,-0.0323,-0.0525,0.0615,0.0613,-0.01,-0.0027,-0.0212,-0.0133,0.067,0.0395,-0.0102,-0.0057,-0.0122,-0.0103,-0.0215,-0.0522,-0.0263,0.0263,-0.008,-0.0072,-0.0025,-0.0083,-0.0168,0.0535,-0.0045,-0.0042,-0.0137,-0.0103,-0.0132,-0.014,-0.004,-0.0043,-0.0053,-0.0043,-0.0235,-0.0175,-0.0128,-0.0063
0.01,0.0155,0.0057,-0.0062,0.0165,0.0295,-0.0053,0.0053,-0.0057,0.0268,-0.0453,-0.0525,0.0145,-0.033,0.0005,0.0023,-0.039,-0.051,0.0845,0.0432,0.0003,-0.0003,-0.007,-0.0002,-0.025,-0.0505,0.007,0.0263,0.0015,-0.0008,-0.0025,0.0007,0.0442,-0.0115,0.001,0.001,-0.0002,0,-0.0005,0.0008,0.001,0.007,0.003,0.0035,-0.0032,0.0005,-0.0017,-0.0003
-0.0017,0.0135,0.054,-0.0477,0.1233,-0.033,0.0005,0.005,0.0278,0.0238,-0.0143,-0.0057,0.0375,0.004,0.0015,0.001,-0.0185,-0.0358,0.081,-0.007,0.0038,0.0012,-0.005,-0.0015,-0.003,-0.0453,0.021,0.011,0.0017,-0.0005,-0.0013,-0.0093,0.0248,0.016,0.0042,0.003,0.0018,-0.0012,-0.0057,-0.0098,0.0095,0.004,0.0067,0.0062,-0.0032,-0.0028,0.0005,0.0032
0.0485,0.0495,0,-0.042,0.0697,0.0235,0.001,0.006,-0.0092,0.0312,0.0195,0.017,0.0257,0.0235,0,0.0055,-0.0133,-0.0263,0.037,0.079,-0.0005,0.0017,-0.0055,-0.0032,0.003,-0.0558,0.021,0.0148,0.0015,-0.0002,0.0032,0.0037,0.0345,-0.0347,0.0052,0.0032,-0.0025,-0.0025,-0.0045,-0.0025,0.0025,-0.002,0.0075,0.007,-0.004,-0.0008,0,0.0025
0.021,0.0328,0.0232,-0.0125,0.022,0.0483,0.0037,-0.0035,-0.0183,0.039,0.0195,-0.027,0.0297,-0.0075,0.0002,0.0027,-0.0537,0.007,0,0,-0.0005,0.0032,-0.007,-0.002,-0.0077,-0.0155,0.0352,0.058,0,-0.0002,0.0075,-0.0003,0.0355,-0.003,0.0057,0.0048,-0.003,-0.0027,-0.0032,-0.0088,0.0063,0.0082,0.0067,0.0065,-0.0057,-0.0035,-0.0027,0.0005
0.003,0.0083,0.0057,-0.0533,0.0572,0.0115,0.0037,-0.003,0.013,-0.0057,-0.041,-0.027,-0.021,0.0078,0.0057,0.0012,-0.0365,0.021,0.05,0.014,0.0005,-0.0013,-0.0092,-0.0025,-0.0182,-0.0548,0.0172,0.0148,-0.0013,-0.0022,0.0025,-0.0063,0.002,0.0103,0.0048,0.0032,-0.0065,-0.0065,-0.0065,-0.0122,-0.0085,-0.0115,0.0057,0.0057,-0.0122,-0.0128,-0.0025,-0.002
-0.0035,0.025,-0.048,-0.0125,0.0697,0.0295,-0.002,0.0042,-0.0047,0.0043,-0.0188,-0.027,0.0107,0.0275,0.0002,0.0018,-0.061,-0.039,0.0305,0.051,-0.0025,-0.0032,-0.0088,-0.0052,-0.0267,-0.0695,0.039,0.034,-0.0038,-0.0045,-0.0048,-0.0048,0.0215,0.019,0.0023,0.0017,-0.01,-0.0095,-0.0177,-0.017,0.001,-0.009,0.0035,0.0027,-0.0222,-0.0165,-0.0055,0.0007
0.0035,0.0438,0.0057,-0.0125,0.0453,0.042,-0.0008,0.0015,0.0012,0.0408,0,-0.0217,0.0615,-0.015,-0.0072,-0.002,0.0113,-0.01,0.0273,-0.0137,-0.0067,-0.0035,-0.0122,-0.007,-0.0237,-0.0478,0.0427,0.0263,-0.0055,-0.006,-0.0085,-0.0103,-0.002,0.0028,0,-0.0008,-0.0147,-0.011,-0.005,-0.0068,-0.0038,-0.0083,0.0008,0.0008,-0.0257,-0.0255,-0.0057,-0.0055
-0.006,0.0495,0,-0.0533,0.0165,0.0175,-0.0057,-0.0013,-0.007,0.0205,0.0095,-0.0375,0.0107,-0.0112,-0.0055,-0.002,-0.049,-0.042,0.06,0.0068,-0.0077,-0.0053,-0.0145,-0.0103,-0.0395,-0.0653,0.082,-0.0178,-0.0097,-0.0085,-0.009,-0.0045,0.006,0.0058,-0.0013,-0.0017,-0.0168,-0.013,-0.006,-0.0173,-0.0095,-0.0168,-0.0017,-0.002,-0.0365,-0.029,-0.0085,-0.008
0.001,0.0393,0.0057,-0.0125,0.0572,0,-0.0008,-0.0005,-0.025,0.0283,-0.0048,-0.0057,0.0657,-0.015,-0.004,-0.0032,0.014,-0.051,0.0918,0.0103,-0.0077,-0.0065,-0.0152,-0.0077,-0.0095,-0.0703,-0.0133,-0.0035,-0.0105,-0.0085,-0.0073,-0.0058,0.0152,-0.0127,-0.0017,-0.0025,-0.0132,-0.011,-0.018,-0.0205,-0.0057,-0.002,-0.0017,-0.0015,-0.0235,-0.0183,-0.0097,-0.0078
0.0018,0.068,0.0605,-0.042,0.0393,0.0057,0.001,0.004,-0.0092,0.0118,0,-0.0057,0.0257,0.0155,0.0002,0.0042,-0.049,-0.06,0.021,-0.0035,0.0003,0.0008,-0.0083,-0.0005,-0.0322,-0.0118,-0.0198,0.034,-0.0008,-0.0027,0.0002,-0.002,0.007,0.0455,0.004,0.0023,-0.0027,-0.0045,-0.0077,-0.0008,0.0028,0.0075,0.0063,0.0057,0.0025,-0.0025,-0.0045,-0.0005
0.012,0.0315,0.0293,-0.0125,0.0165,0.0483,0.0088,-0.001,0.0095,0.0268,-0.0143,-0.0375,-0.0143,0.0318,-0.0015,0.0045,-0.0512,-0.0358,0.015,-0.0137,0.001,0.0032,-0.006,-0.002,-0.0072,-0.0548,0.021,0.0185,-0.0003,-0.0017,0.0012,-0.0038,0.0103,0,0.0055,0.0032,-0.003,-0.0025,0,-0.0098,0.002,-0.0045,0.008,0.0062,-0.0032,-0.0015,-0.0023,0.001
-0.0207,0.0505,-0.0113,-0.0245,0.0572,0.0175,0.001,0.0038,-0.0127,0.0328,-0.0323,-0.0322,0,0.004,0.004,0.0065,0.0027,-0.042,0.0468,0.032,0.0003,0.0017,-0.0077,-0.0035,-0.0272,-0.0522,0.0137,-0.0178,-0.0008,-0.0022,-0.0063,-0.0045,0.03,-0.0115,0.005,0.0035,-0.0062,-0.005,-0.0027,0.0002,0.0143,0.0023,0.0065,0.0065,-0.0085,-0.0072,-0.002,-0.0015
-0.0088,0.0282,-0.0165,-0.0642,0.0635,0.0358,0.0037,-0.0005,0.0012,-0.0085,-0.0232,-0.0425,0.0615,-0.0037,0.0042,0.0025,-0.0133,-0.0068,0.05,-0.017,0.0025,0.0012,-0.0072,-0.0042,0.003,-0.0703,0.007,-0.0107,-0.0008,-0.003,0.001,-0.0038,0.002,-0.0252,0.004,0.0035,-0.0048,-0.0065,0.0025,-0.0042,-0.0052,-0.0043,0.0078,0.0055,-0.0115,-0.0075,-0.0023,-0.001
-0.0248,0.0382,0.0057,-0.0185,0.022,-0.0113,-0.0015,-0.0005,0,0.0298,-0.0095,0,0.0375,-0.015,0.0017,0,-0.0107,-0.0688,0.088,0.0708,0.001,-0.0013,-0.0095,-0.0055,-0.0237,-0.0478,0.0245,0.0418,-0.0035,-0.005,-0.0048,-0.011,0.0133,0.0345,0.004,0.0017,-0.009,-0.0078,-0.0115,0.0005,0.009,-0.0075,0.006,0.0042,-0.0145,-0.0137,-0.0023,-0.0028
-0.015,0.0405,0.0232,-0.0855,0.0572,0,0.0072,0.0035,-0.0057,0.0253,-0.0232,0,0.022,0.0078,-0.0053,-0.0015,-0.016,-0.0033,0.0738,0.0432,-0.0042,-0.0043,-0.0088,-0.0095,-0.034,-0.0278,0.0137,0.054,-0.0068,-0.0067,-0.0023,-0.0098,0.004,0.016,0.002,0.0002,-0.015,-0.0115,-0.0157,-0.011,0.0028,-0.0135,0.0035,0.0025,-0.0235,-0.0188,-0.007,-0.0065
0.0285,0.0505,0.0115,0.0325,0.0107,-0.017,-0.0023,-0.004,-0.024,-0.0027,-0.041,-0.0475,0.0615,-0.033,-0.003,0,-0.0585,-0.01,0.0635,-0.0103,-0.0082,-0.002,-0.0145,-0.0082,-0.026,-0.0643,-0.0263,-0.0107,-0.0085,-0.008,-0.0035,-0.011,0.0142,-0.0057,-0.0005,-0.0015,-0.0152,-0.014,-0.011,-0.0145,-0.0008,-0.007,-0.0005,-0.0005,-0.032,-0.0238,-0.0095,-0.0083
-0.0127,-0.0168,0.0172,-0.0477,0.0165,0,-0.001,-0.0083,-0.007,0.0205,0.0245,0.0595,0.0257,0.0235,-0.0025,-0.0015,-0.039,-0.063,0.0635,-0.007,-0.0095,-0.0048,-0.0175,-0.0107,-0.0112,-0.038,0.007,0,-0.0105,-0.0102,-0.0105,-0.009,-0.03,0.0408,-0.0028,-0.0027,-0.0168,-0.0147,-0.023,-0.0202,0,-0.003,0,-0.001,-0.0325,-0.0258,-0.0122,-0.01
0.0125,0.0207,-0.0113,-0.0125,0,0.0613,0.0025,0.012,0.019,0.0238,0.0347,-0.011,-0.0107,0.0078,-0.0033,0.0008,-0.029,-0.039,0.0403,0.014,-0.0017,-0.0008,-0.0083,-0.004,-0.0135,-0.0635,-0.0745,-0.0178,-0.003,-0.0048,-0.0033,-0.009,0.003,0.0345,0.0042,0.0025,-0.0048,-0.0045,-0.0055,-0.0095,0.0065,0.0005,0.0075,0.0067,-0.0045,-0.0038,-0.0025,-0.0038
0.018,0.0495,0.0057,-0.0697,0.1022,0.0115,0.0008,0.0062,0,0.0145,0.0095,-0.0322,-0.0245,0.0118,0.003,0.005,-0.049,-0.1023,0.1065,0.0473,0.0025,0.002,-0.0065,-0.0057,-0.009,-0.0213,-0.0033,0.0263,-0.0015,-0.003,0.0005,-0.01,0.0237,0.0455,0.0048,0.0032,-0.0037,-0.0042,-0.005,-0.0068,0.0033,-0.0035,0.01,0.0097,-0.0042,-0.0013,-0.002,-0.0008
0,0.0382,0.0232,-0.0362,0.0107,0,0.0005,0.0012,0.0142,0.0058,0.0505,-0.027,0.0107,0.0658,0.003,0.0068,-0.0212,-0.0688,0.0702,0.032,0.0023,0.0027,-0.006,-0.0025,-0.0322,-0.046,-0.0295,-0.0035,-0.0008,-0.0037,-0.0045,-0.0048,0.0257,0.0268,0.006,0.0035,-0.0042,-0.0048,0.0027,-0.0048,0.011,0.0005,0.0097,0.0107,-0.0077,-0.0055,-0.002,0.001
-0.0117,-0.005,-0.022,0.0193,0.0453,-0.0278,0.0015,-0.0015,0.0278,0.036,-0.0143,0.017,0.0072,-0.033,0.0017,0.0012,0.0113,-0.039,0.037,-0.0202,0.0005,0.001,-0.0083,-0.006,-0.0317,-0.0155,0.0172,-0.0107,-0.002,-0.003,-0.002,-0.0005,0.0465,0.0103,0.0063,0.004,-0.005,-0.0063,-0.0045,-0.0085,-0.0027,0.0017,0.0107,0.009,-0.007,-0.0072,-0.0015,-0.0008
0.0273,0.023,-0.0113,-0.0185,0.0825,0.0548,0,0.0025,0.0118,0.0043,-0.0278,-0.0322,0.0453,-0.0075,0.0035,0.0008,-0.0107,-0.0328,0.0702,0.0358,0.0025,0.001,-0.006,-0.0045,-0.04,-0.0777,-0.0295,-0.0107,-0.0035,-0.005,-0.0028,-0.0078,-0.005,-0.0197,0.0057,0.0035,-0.0097,-0.0078,-0.0115,-0.0093,0.005,0.0008,0.0088,0.008,-0.0118,-0.0095,-0.0042,-0.0005
-0.0017,-0.0255,-0.022,-0.0245,0.0278,0.0548,-0.0118,-0.0025,0.0035,0.0408,0,0.0055,0.0412,0.0118,0,0.0053,0.0225,-0.01,0.05,0.0432,-0.0022,-0.0017,-0.011,-0.0067,0.0018,-0.0425,-0.0033,0.03,-0.0058,-0.006,-0.008,-0.0025,-0.0158,0.0393,0.002,0.001,-0.012,-0.0103,-0.0122,-0.0128,0,0.0005,0.0072,0.0048,-0.022,-0.018,-0.007,-0.0043
0.0248,0.0263,0.0115,-0.0185,0,0.0115,-0.0003,0.004,-0.0047,0.003,-0.0278,-0.0322,-0.0035,-0.0075,-0.0005,-0.0003,-0.039,-0.023,0.003,0.0032,-0.0042,-0.0032,-0.0137,-0.0082,-0.0355,-0.061,-0.0165,0.03,-0.0085,-0.009,-0.0065,-0.0065,0.0122,0.0685,0.001,-0.0005,-0.0157,-0.0132,-0.0172,-0.012,-0.01,-0.011,0.0027,0.0022,-0.029,-0.0245,-0.009,-0.0075
0.007,0.0042,0.0477,-0.059,0.0335,0.0235,0,-0.0078,-0.0195,0.0015,-0.0188,0.0228,0.0575,-0.0075,-0.0035,-0.0035,-0.0133,-0.0888,0.012,0.0667,-0.0077,-0.0063,-0.012,-0.0105,-0.0282,-0.0745,0.0502,-0.0477,-0.0118,-0.0112,-0.01,-0.0093,0.028,-0.0292,-0.0017,-0.0023,-0.0157,-0.0155,-0.0217,-0.0208,0.0013,-0.0152,-0.0005,-0.0003,-0.0367,-0.0238,-0.015,-0.0078
0.013,0.037,0,-0.0477,0.0107,-0.0222,-0.0072,0.0027,0.0215,0.003,-0.0188,-0.0057,0.0375,0.004,-0.0008,-0.0003,-0.049,-0.0263,0.0468,-0.0332,-0.0025,-0.0017,-0.0098,-0.007,-0.01,-0.0685,-0.0295,0.0148,-0.0053,-0.0065,0.0005,-0.013,0.0185,0.0118,0.0023,0.0008,-0.0057,-0.0052,-0.0035,-0.0008,0.0013,-0.0045,0.0042,0.003,-0.0062,-0.0053,-0.0055,-0.0055
0.0108,0.0328,-0.0055,0,0.022,0.0175,0.004,0.0055,-0.0057,0.022,-0.0368,0,0.0743,0.0318,0.0055,0.007,-0.0315,-0.057,0.015,0.032,0.0055,0.0052,-0.0062,-0.0025,0.0078,-0.0593,0.021,0.0418,-0.0005,-0.003,0.0015,-0.002,0.0103,0.0175,0.007,0.0028,-0.0027,-0.0038,-0.0082,-0.015,0.002,-0.0053,0.008,0.0072,0.0003,-0.004,-0.0042,0
0.0255,0.0083,-0.0113,-0.0245,0.0572,0.0057,0.0002,-0.0088,0.0057,0.0438,-0.0785,0.0055,0.0492,0.04,0.0065,0.0068,-0.034,-0.01,0.067,0.0248,0.0038,0.0045,-0.0057,-0.0017,-0.0382,-0.0678,0.007,0.0498,0.0008,-0.0027,-0.0008,-0.0013,-0.005,0.0028,0.0072,0.0042,-0.002,-0.0042,-0.0085,-0.01,0.003,-0.0043,0.0103,0.009,-0.0045,0,0,0.002
-0.0157,0.0125,-0.0165,0,0.0278,-0.017,0.0023,0.0125,-0.0083,0.0503,0.0295,0.0288,0.0615,0.0078,0.0002,0.0027,-0.029,-0.0358,0,0.0432,0.0043,0.0037,-0.0077,-0.0042,-0.0322,-0.0593,-0.0328,0.0222,-0.001,-0.0025,-0.001,-0.0003,0.0195,0.0312,0.0063,0.0038,-0.0048,-0.006,-0.0023,-0.005,0.0003,-0.0038,0.0093,0.0077,-0.002,-0.0003,-0.0012,0.0007
0.007,0.025,0.0115,-0.0245,0.0453,0,0.0042,-0.0003,-0.0115,0.0618,-0.0278,0.0055,0.0072,0.0155,0.0023,0.0035,0.0027,-0.023,0.018,-0.0137,0.003,0.0025,-0.009,-0.0072,-0.0362,-0.0333,0.0137,0.0498,-0.0013,-0.0032,-0.003,-0.0085,0.0175,0.0043,0.0052,0.0032,-0.0065,-0.0067,-0.0027,-0.0065,0.0028,-0.0028,0.0097,0.0085,-0.006,-0.0068,0.0013,0.0005
0.0057,-0.0178,-0.0325,0.0258,0.0165,0.0358,-0.001,0.003,0.019,0.0238,0.0245,-0.0425,-0.0175,-0.0075,0.0005,0.005,-0.0315,-0.042,0.015,0.0248,0.002,0.0015,-0.0088,-0.0052,0.0013,-0.072,-0.023,0.0418,-0.0028,-0.005,0.0007,-0.009,0.0112,0.0238,0.005,0.0023,-0.0085,-0.0092,-0.0135,-0.0078,0.0057,-0.0013,0.0048,0.0048,-0.0107,-0.0103,-0.0025,-0.0003
0.0137,0.0135,0.0352,-0.042,0.0453,0.0057,0.0032,0.0038,-0.0023,0.06,0,-0.0217,0.0035,0.057,0.0035,-0.002,-0.0265,-0.0133,0.05,0.0587,0.0005,-0.0008,-0.0105,-0.0085,0.0005,-0.0513,0.021,0.0072,-0.006,-0.0065,-0.002,-0.0105,-0.011,-0.0072,0.0017,0.0002,-0.0128,-0.0115,-0.0047,-0.0163,-0.013,-0.013,0.003,0.0027,-0.0185,-0.0185,-0.0057,-0.0053
0.0005,0.035,0.0115,0,0.0165,-0.0057,-0.0005,0.0005,0.0083,0.0283,-0.0623,-0.027,0.0035,0.0195,-0.0035,0.0018,-0.0512,-0.0358,0.05,0.0248,-0.0045,-0.0028,-0.0125,-0.0097,-0.0395,-0.0558,0.0427,-0.021,-0.009,-0.008,-0.0158,-0.01,0.004,-0.0212,0.0008,-0.0008,-0.015,-0.0135,-0.0067,-0.0068,-0.0027,-0.012,0.0008,0.0002,-0.0242,-0.02,-0.0082,-0.005
-0.0088,0.0295,0,-0.0477,0.0513,0.0548,-0.002,0.0012,0.0047,0.0175,0.0245,0.017,0.0072,0.04,-0.0005,-0.0003,-0.0415,-0.054,0.0568,0.0628,-0.0017,-0.0017,-0.0125,-0.004,-0.0277,-0.0297,0.0502,0.0457,-0.0063,-0.0072,-0.004,-0.008,0.0312,-0.028,0.0017,0.0005,-0.0088,-0.0082,-0.0172,-0.0163,-0.0012,-0.0088,0.0017,0.0025,-0.011,-0.0108,-0.0052,-0.0028
0.0163,0.0207,0.0115,-0.042,-0.0105,-0.0057,0.0082,0.0047,-0.007,0.047,-0.0048,0.0228,0.0035,0.0358,0.0035,0.0077,-0.0185,-0.048,0.0403,0.0432,0.003,0.0065,-0.0075,-0.0023,-0.0267,-0.0165,0.0352,-0.0035,0.001,-0.0017,-0.0008,-0.0083,0.001,0.016,0.0065,0.0035,-0.0017,-0.002,-0.0017,-0.0038,-0.0055,0.001,0.0075,0.0065,0.0078,0,-0.002,0.002
0.0235,0.0438,0.067,0,0.022,0.042,0.0037,0.0165,-0.0205,0.0253,0.04,-0.0375,-0.0507,0.0078,0.0072,0.0055,0.0198,-0.0295,0.0403,-0.0427,0.0072,0.005,-0.0053,-0.002,-0.0222,-0.066,-0.063,-0.028,0.0017,-0.0012,0.0045,-0.0013,-0.03,0.0473,0.0082,0.0048,0.0008,-0.0017,0.0042,-0.0018,0.004,-0.0038,0.0103,0.008,0.0068,0.0017,0.0015,0.0025
0.0057,0.035,0,0.0063,0.0165,0.0358,0.0095,0.0125,0.007,0.022,0.0295,-0.0322,0.0575,0.0078,0.0015,0.004,0.014,-0.0358,0.0243,-0.0035,0.003,0.005,-0.007,-0.001,-0.003,-0.066,-0.0068,0,0.0017,-0.0012,0.0022,-0.002,0.0228,0.0345,0.0077,0.0048,-0.0017,-0.0045,-0.0005,-0.0038,0.0055,-0.0025,0.0097,0.0082,0.002,-0.002,0.0023,0.0007
0.021,0.0438,-0.0165,-0.059,0.0393,0.0358,0.0095,0.0112,0.0035,0.039,-0.0825,-0.027,0.0257,0.0318,0.0017,0.0023,-0.0212,-0.042,0.0338,0.0358,0.0053,0.003,-0.0045,-0.0027,-0.0437,-0.0408,0.0317,0.0418,0.0017,-0.0017,-0.0023,-0.0105,-0.01,0.0375,0.007,0.0048,-0.002,-0.006,-0.003,-0.0078,0.004,0.0005,0.0088,0.008,-0.0035,0.0002,0,0.0012
-0.014,0.0518,-0.0113,-0.0245,0.0335,-0.017,0.0032,0.0067,-0.0205,0.0145,-0.0095,-0.0717,0,-0.0222,0.0023,0.0055,-0.0465,-0.0295,0.037,-0.03,0.0005,0.0032,-0.009,-0.0062,-0.0282,-0.0185,-0.0033,-0.021,-0.001,-0.0037,-0.0018,-0.0045,0,0.052,0.006,0.0032,-0.0067,-0.0067,-0.003,-0.0122,0.0018,-0.0155,0.0082,0.0057,-0.0067,-0.0098,-0.0017,-0.001
0.0108,0.0295,0.067,-0.0477,0.0393,0.0483,0.0042,0.002,0.0178,0.039,-0.0825,-0.0322,0.0533,-0.0037,0.0023,-0.0008,-0.0465,-0.039,0.0773,0,0.0003,0,-0.0107,-0.0057,-0.0415,-0.1075,-0.0133,-0.0107,-0.0035,-0.0048,0.0027,-0.0053,0.0522,0.0072,0.0035,0.0017,-0.0088,-0.0107,-0.01,-0.0178,-0.0015,0.004,0.004,0.003,-0.0172,-0.0133,-0.0067,-0.0043
0.0088,0.0338,-0.0055,0.0063,0.0278,0.0057,0.0015,-0.0008,-0.0172,0.06,-0.0048,-0.0217,0.0072,0.0358,-0.0005,-0.002,-0.0185,-0.048,0.0468,0.014,-0.0015,-0.0025,-0.0125,-0.0085,-0.026,-0.0728,-0.023,-0.038,-0.0065,-0.0072,-0.0028,-0.009,-0.008,0.0043,0.001,-0.0008,-0.0132,-0.0137,-0.0055,-0.0122,-0.0035,-0.0195,0.0013,0.0015,-0.0172,-0.015,-0.0063,-0.0053
-0.0012,0.036,0.0115,-0.0245,0.0393,-0.017,0.0027,0.0015,-0.0012,0.047,-0.0453,0.0113,0.0575,0.0793,0,0.0015,-0.0212,-0.045,0.0773,0.0248,-0.0037,-0.0017,-0.014,-0.011,-0.0395,-0.0297,0.0777,0.0622,-0.008,-0.0082,-0.0103,-0.005,-0.009,0.0175,0.0002,-0.002,-0.0135,-0.0122,-0.0157,-0.0165,-0.0027,-0.0193,-0.0008,-0.0005,-0.0225,-0.018,-0.0072,-0.006
-0.015,0.002,0.0232,-0.059,0.0393,0,0.005,0.0067,-0.0172,0.0785,-0.0232,-0.011,0.0335,0.0658,0.0052,0.003,-0.0315,-0.042,0.081,-0.007,0.0038,0.005,-0.009,-0.002,-0.0617,-0.0297,0.0697,0.011,0.0005,-0.0025,0,-0.0078,-0.002,0.0145,0.005,0.0017,0,-0.0027,0.003,-0.0068,-0.0025,-0.0063,0.0067,0.0048,0.0088,0.004,0.0008,0.0015
0.0078,0.0187,0.0293,-0.0062,0.0107,-0.0057,0.008,0.0072,0.007,-0.0015,-0.0048,0.0055,0.0492,0.004,0.0057,0.003,-0.0512,-0.0803,0.0243,-0.017,0.0063,0.0045,-0.0062,-0.002,-0.0152,-0.0315,0.0137,0.0263,0.002,-0.0012,0.0065,-0.006,0.007,0.0268,0.0082,0.0035,-0.0002,-0.0045,0.0053,0.0027,0.0028,0.0015,0.008,0.0067,0.006,0.0012,0.003,0.004
-0.0302,0.0382,0.0477,0.0063,0.0697,0.0057,0.0085,0.0165,-0.0127,0.0408,0.0295,-0.0375,0.0412,0.0658,0.0035,0.0083,-0.0025,-0.0328,0.0435,0.0358,0.0058,0.005,-0.0072,-0.005,-0.0192,-0.0433,-0.023,-0.007,0.0025,-0.0015,0.0032,-0.0078,0.008,0.0058,0.0067,0.004,-0.001,-0.0045,0.0023,-0.0148,0.005,-0.0098,0.0082,0.0065,0.008,0,0.0013,0.0012
-0.0088,0.0527,-0.0113,-0.042,0.022,0.042,0.0055,0.0135,-0.0127,0.0058,-0.0095,-0.0425,0.022,0.004,0.004,0.005,-0.034,0.0035,0.0273,0.0103,0.007,0.0037,-0.0077,-0.0023,-0.0387,-0.061,-0.01,0.0148,0.0017,-0.002,0.002,-0.0028,0.0355,0.0253,0.0077,0.003,-0.001,-0.006,0.0035,-0.0018,0.006,-0.012,0.0075,0.0062,0.0023,-0.001,0.001,0.0017
0.0035,0.0315,0.0415,-0.0062,0.0513,0.0175,0.014,0.0072,-0.0115,0.0175,-0.0048,-0.0217,0.0335,0.0078,0.004,0.0038,-0.0512,-0.0803,0.0468,0.0068,0.0058,0.0027,-0.0085,-0.007,-0.0405,-0.036,0.028,-0.0035,0,-0.0022,0.0005,-0.0053,0.002,-0.0042,0.007,0.0028,-0.005,-0.0085,-0.0032,-0.0018,0.0023,-0.0128,0.0067,0.0042,-0.004,-0.0053,-0.0008,0.002
-0.019,0.0103,0.0057,-0.0185,0.022,0.042,0.0032,0.0085,-0.016,0.0312,0,-0.027,0.0183,0.0318,0.0012,-0.0003,0,-0.0165,0.0568,0.0248,-0.0015,-0.0008,-0.013,-0.0088,-0.0332,-0.046,-0.0198,0.058,-0.003,-0.0052,0.001,-0.0072,0.001,0.0072,0.0042,0.0015,-0.0095,-0.0097,-0.0005,-0.0095,0,-0.006,0.0042,0.0022,-0.0118,-0.0065,-0.0027,-0.001
0.003,0.0282,0.0415,-0.0245,0.0278,0,-0.0023,0.0005,-0.0305,-0.01,-0.0232,-0.027,0.0533,0,-0.0013,-0.0003,-0.0585,-0.045,0.0702,0.014,-0.0032,-0.0005,-0.0157,-0.009,-0.0107,-0.0118,-0.057,-0.007,-0.0063,-0.0072,-0.0045,-0.0028,-0.003,0.019,0.0023,-0.0012,-0.012,-0.011,-0.0085,-0.011,-0.0027,-0.0103,0.0008,0.0005,-0.0185,-0.011,-0.0063,-0.0065
-0.0105,0.0553,-0.0165,-0.0125,0.0335,0.0358,-0.0015,0.003,-0.0057,0.0408,-0.0278,-0.0165,0.0257,-0.0075,-0.004,0.0012,0.0027,-0.039,0.0243,-0.0397,-0.0037,-0.0023,-0.0137,-0.01,-0.0395,-0.0593,0.0137,-0.0245,-0.0072,-0.0092,-0.0065,-0.0145,-0.0137,0.0253,0.0005,-0.002,-0.012,-0.0122,-0.0125,-0.0208,-0.0027,-0.01,0.0002,-0.0005,-0.0183,-0.013,-0.008,-0.0055
-0.003,0.0657,0.0057,0.0193,0.022,0.042,0.01,0.0072,-0.0127,0.0175,-0.0095,-0.027,0.07,0.0318,0.0052,0.0025,-0.0107,-0.042,0.006,0.0032,0.0043,0.004,-0.0092,-0.0085,-0.03,-0.026,-0.057,-0.051,0.0008,-0.002,-0.0003,-0.0065,0.002,-0.0292,0.0063,0.0025,0.0018,-0.0025,0.006,-0.0025,0.0113,0.0005,0.0075,0.0065,0.0083,0.0035,0.0005,-0.0003
0.04,0.0598,-0.058,0.0325,0.0635,0.0175,-0.0015,0.0075,-0.0023,0.0408,0.0047,-0.0165,0.0145,0.0118,0.0012,0.003,-0.0465,-0.0718,0.037,-0.052,0.0045,0.0057,-0.007,-0.006,-0.0305,-0.0972,0.0102,0.0185,0.002,-0.0005,0.0085,0.0012,0.004,0.0473,0.0088,0.004,0.001,-0.0025,0.0018,-0.0038,0.0063,-0.0083,0.0115,0.0092,0.009,0.006,0.0035,0.003
-0.019,0.0198,0.0415,-0.0362,0.0165,0.0115,0.0077,0.0032,-0.0012,0.0133,-0.041,0.0288,0.0183,0.0195,0.0015,0.0035,-0.0415,-0.0358,0.012,0.0068,0.0055,0.004,-0.0053,-0.0072,0.0158,-0.0333,-0.0165,0.0038,0.002,-0.002,-0.001,-0.007,0,-0.0185,0.009,0.0048,0,-0.0055,0.0107,-0.0155,0.0013,-0.0038,0.0115,0.0097,0.0075,0.0035,0.004,0.001
0.004,0.0473,0.0352,-0.0125,0.0055,-0.0222,0.0012,0.0045,-0.037,0.047,-0.0623,0.017,0.096,0.0275,0.0067,0.0055,-0.0133,-0.048,0.0403,0.0032,0.0058,0.0045,-0.0085,-0.0052,-0.0305,-0.0678,0.0137,0.0263,0.0005,-0.0027,-0.0008,-0.0085,0.041,0.0088,0.0103,0.0063,-0.0012,-0.0045,0.0042,-0.0113,0.0023,-0.0048,0.0122,0.0105,0.0065,0.0015,0.001,0.0015
0.0205,0.0382,0.0232,-0.0697,0.0513,0.0115,-0.0048,0.0072,0.0023,0.0283,-0.0495,0.0113,0.0375,0.0793,0.0067,0.003,0.0433,-0.042,0.018,-0.017,0.0055,0.0015,-0.0085,-0.0082,-0.0147,-0.046,-0.0358,0.034,0.0002,-0.0042,0.0027,-0.0083,0.0103,0.0145,0.0088,0.0053,-0.0017,-0.0078,-0.002,-0.0068,0.0005,-0.01,0.0115,0.0097,-0.001,-0.004,0.0035,0.0005
0.0125,-0.016,0.0232,-0.0062,0.0165,0.0678,-0.0033,-0.003,0.0083,-0.0085,-0.0368,-0.0375,0.022,0.0318,0.0008,0.0042,-0.039,-0.023,0.0435,0.0282,0.001,0.0025,-0.0118,-0.0095,-0.0545,-0.0653,0.0172,0.034,-0.0028,-0.0055,0.0035,-0.0098,0.002,0.033,0.0077,0.0028,-0.0075,-0.0097,-0.003,-0.0038,-0.0015,-0.0008,0.0082,0.0072,-0.0072,-0.0093,-0.0002,-0.0018
-0.0012,0.0328,0.0115,-0.0125,0.0697,-0.017,0.0067,-0.0015,-0.036,0.022,-0.058,-0.0057,0.0107,-0.0535,0.0017,0.0012,-0.008,-0.0295,0.0468,0.0103,-0.001,-0.0013,-0.0145,-0.0103,-0.0452,-0.0878,-0.054,-0.0312,-0.005,-0.0072,-0.0075,-0.012,0.005,-0.0252,0.0057,0.0025,-0.0132,-0.0118,-0.001,-0.013,-0.0175,-0.0072,0.0065,0.0057,-0.0105,-0.0145,-0.0042,-0.004
-0.0012,-0.013,-0.0055,-0.0245,-0.0105,0.0175,-0.0025,0.0002,-0.0115,0.047,0.0047,-0.027,0.0375,0.0358,-0.0003,-0.0015,-0.0212,-0.0198,0.0435,0.0248,-0.0022,-0.0023,-0.0137,-0.013,-0.0305,-0.0753,-0.0068,0.054,-0.0085,-0.0092,-0.0055,-0.0195,-0.002,-0.0452,0.0032,0.0002,-0.0137,-0.0145,0,-0.0042,-0.0005,-0.0137,0.0025,0.003,-0.0202,-0.021,-0.007,-0.0065
0.0155,-0.004,-0.0325,-0.0125,0.0335,0.0295,0.0037,-0.0005,0.0105,0.022,0,0,0.0335,0,0.003,-0.0062,-0.0415,-0.023,0.0468,0.014,0.0003,-0.0015,-0.0125,-0.0127,-0.0367,-0.0193,0.028,0.0072,-0.0058,-0.0077,-0.001,-0.0083,-0.011,0.0503,0.005,0.001,-0.0065,-0.0103,-0.0047,-0.0118,0.004,-0.0013,0.0063,0.004,-0.0057,-0.003,-0.0042,-0.003
-0.0157,0.0527,-0.022,-0.0362,0.0513,0.0358,0.009,0.0027,-0.0083,-0.0015,0.0095,-0.0322,0.0035,-0.0222,0.0045,0.0057,0.0113,-0.045,-0.0118,0.0667,0.0045,0.0052,-0.0088,-0.005,-0.021,-0.0695,0.039,0.011,0.0015,-0.0025,0,-0.0093,0.0312,0.0028,0.0103,0.0053,0.0025,-0.0035,0.0168,-0.0053,-0.0025,-0.0125,0.0128,0.0102,0.0065,0.0065,0.003,0.0017
-0.0135,0.0338,-0.0113,0.0325,0.0825,0.042,0.0047,0.0038,-0.0195,0.0058,-0.0453,-0.0475,0.0827,-0.015,0.0042,0.0065,-0.0512,-0.0295,0.015,0,0.0065,0.0055,-0.007,-0.007,-0.0277,-0.0617,-0.0263,-0.021,0.003,-0.0012,0.0007,-0.0103,0.0322,0.013,0.0128,0.0068,0.0008,-0.0038,0.003,-0.0088,0.0068,-0.0013,0.0165,0.0128,0.01,0.009,0.005,0.0055
-0.007,0.0315,0.0115,-0.0305,0.0278,0.0483,0.0085,-0.0048,-0.0035,0.0455,-0.0143,0.017,0.0453,0.0195,0.01,0.0045,-0.0053,-0.0165,0.0738,0.0032,0.007,0.0045,-0.0057,-0.007,-0.0205,-0.0333,-0.039,-0.0035,0.0012,-0.002,0.0017,-0.0063,-0.0225,0.0455,0.0132,0.0065,-0.001,-0.0042,0.005,-0.0078,0.0055,-0.0028,0.0175,0.0122,0.01,0.0032,0.0057,0.0015
0.0035,0.0295,0.0352,-0.0245,0.0513,0.0115,0.004,0.0015,0.0047,0.0488,-0.0323,-0.0622,0.022,-0.015,0.0057,0.0038,-0.0053,-0.057,0.081,0.0282,0.0063,0.0045,-0.0088,-0.0062,-0.0305,-0.061,-0.0198,0.0222,0.002,-0.0025,-0.003,-0.004,0.0112,0,0.0128,0.008,-0.0002,-0.0055,0.0038,-0.0083,0.004,-0.0055,0.017,0.012,0.0075,0.0008,0.006,0.004
-0.018,0.0527,-0.0055,-0.042,0.022,-0.0057,0.0008,0.005,0.0155,-0.0057,-0.0188,0.017,0.0257,0.0235,0.0075,0.0042,-0.0365,-0.0165,0.018,-0.0365,0.004,0.0037,-0.011,-0.0055,-0.0222,-0.0193,-0.0165,0.011,-0.0013,-0.0048,-0.0025,-0.0055,0.0162,-0.0057,0.0117,0.0063,-0.0065,-0.0082,0.0035,-0.005,0.0103,-0.0038,0.015,0.0115,-0.005,-0.0055,-0.001,-0.0003
-0.0025,0.0207,-0.0377,-0.042,0.0107,0.0175,0.0067,-0.0023,-0.0092,0.0283,0.0047,0.0113,0.0107,0.0443,0.002,0.0023,-0.0315,-0.051,0.0273,-0.0332,0.001,0.0012,-0.013,-0.011,-0.04,-0.0635,-0.01,0.0457,-0.0038,-0.0067,-0.0023,-0.0083,0.0142,0.0072,0.0107,0.0053,-0.0085,-0.0107,-0.0032,-0.0122,-0.0055,-0.002,0.0145,0.0097,-0.0095,-0.0105,-0.0012,0
0.0323,-0.012,0,-0.042,0.0635,-0.0222,0.0045,0.003,-0.0195,0.016,-0.0323,0.0055,0.0827,0.04,0.0017,-0.001,-0.0185,-0.045,0.05,0.0175,-0.0017,-0.0013,-0.0157,-0.01,-0.0082,-0.0488,-0.023,0.0072,-0.0072,-0.0092,-0.0063,-0.02,0.0215,-0.0015,0.0088,0.0048,-0.011,-0.0125,-0.0135,-0.0152,-0.0015,-0.0173,0.0125,0.01,-0.0132,-0.012,-0.0017,-0.0018
0.023,0.0207,0.0477,0.0535,0.0278,0.0483,-0.0028,0.0015,-0.0328,-0.0142,-0.0095,0.0055,0.0453,0.0155,0.0008,-0.0047,-0.068,-0.0198,0.0738,0.0068,-0.0032,-0.0045,-0.019,-0.015,-0.0432,-0.061,0,0.034,-0.011,-0.0115,-0.0098,-0.013,0.0112,-0.0088,0.0067,0.003,-0.0135,-0.0155,-0.0082,-0.0173,-0.003,-0.0165,0.0085,0.0062,-0.0235,-0.0183,-0.005,-0.0043
0.003,0.0305,-0.0055,-0.0362,0.0393,-0.0278,0.0077,0.0045,-0.015,0.0328,-0.0278,-0.0575,0.0183,0.057,-0.0028,0.0015,-0.0265,-0.0688,0.0702,-0.007,-0.0032,0.0005,-0.0133,-0.0092,-0.0447,-0.0453,-0.0133,-0.0178,-0.0075,-0.008,-0.0063,-0.0145,0.0185,0.0118,0.0012,-0.002,-0.004,-0.0065,0.0013,-0.015,-0.0012,-0.006,-0.0015,-0.0038,-0.001,-0.0035,-0.0027,-0.002
-0.0122,0.0495,0.054,-0.0305,0.089,-0.0113,0.004,0.0062,-0.0282,0.036,-0.0232,-0.0475,-0.0143,0.0078,0.0082,0.0055,-0.0415,-0.054,0.06,0.032,0.0063,0.006,-0.0068,-0.0017,-0.0512,-0.0315,0.0102,0.0185,0.0008,-0.0042,-0.0048,-0.0038,0.0142,0.0088,0.001,-0.004,0.0038,-0.0023,0.004,-0.0055,0.0128,-0.0065,-0.006,-0.0083,0.0083,0,0.0032,0.0017
0.0053,0.0103,0,-0.0185,0.0825,0.0115,0.0112,0.0062,0.019,0.039,-0.0323,-0.0525,-0.0143,0.004,0.0125,0.0045,0.0055,-0.051,0.088,0.0248,0.0125,0.0063,-0.0035,0.0003,-0.025,-0.0433,-0.0328,0,0.0017,-0.003,-0.0015,-0.0135,0.0332,-0.0185,0.0042,-0.0015,0.0045,-0.0038,0.004,-0.006,0.0175,0.0032,-0.0013,-0.0032,0.0072,-0.002,0.005,0.0027
-0.024,0.0495,0.0232,-0.0362,0.0513,0.0548,0.0032,-0.0008,0.0023,0.0298,-0.0278,-0.0375,-0.0035,0.0485,0.0067,0.0072,-0.008,-0.06,0.0243,0.014,0.0063,0.0067,-0.006,-0.0023,-0.0427,-0.0333,0.0035,-0.0142,0.0005,-0.0055,-0.003,-0.0135,0.001,0.033,0.0042,0.0005,0.0032,-0.004,0.0018,-0.0083,0.0042,0.0017,0.0045,0.0015,-0.0032,-0.007,0.0038,0.0025
-0.0248,-0.016,-0.0377,0.0258,0.0697,0.0057,0.0085,0.0038,0.019,0.019,-0.0705,-0.0575,0.0072,0.0235,0.01,0.007,-0.0465,-0.0745,0.05,0.0068,0.007,0.0063,-0.0085,-0.007,-0.047,-0.0297,0.0102,-0.0312,-0.002,-0.0072,-0.0035,-0.0125,0.0215,-0.0142,0.0132,0.0063,0.0075,-0.002,0.0027,-0.0005,0.0025,-0.006,0.0115,0.0085,-0.0085,-0.0137,0.0028,-0.0013
0.0168,0.0263,0.0352,-0.0185,0.0697,0.0745,0.0052,0.0008,-0.0172,0.0618,-0.0095,-0.027,0.07,0.0235,0.0067,0.0098,-0.0133,-0.083,0.0435,0.0032,0.005,0.0057,-0.0125,-0.0077,-0.0187,-0.0892,0.0172,0.0377,-0.0065,-0.0097,-0.012,-0.0218,-0.0128,0.0223,0.0172,0.0105,0.0068,-0.0027,-0.006,-0.0085,0.0013,-0.0072,0.0187,0.0145,-0.0147,-0.0152,-0.002,-0.0025
-0.0168,0,-0.0055,0.0063,-0.0105,0.0235,0.004,-0.0023,-0.007,0.0312,0.0047,-0.0475,-0.0035,0.0703,0.0047,-0.0008,-0.0537,-0.0688,0.0845,0.0175,0.002,0.003,-0.019,-0.0115,-0.0055,-0.0728,0,-0.028,-0.0095,-0.0132,-0.0103,-0.0223,-0.009,-0.0015,0.0185,0.011,0.002,-0.0065,-0.0103,-0.0045,0.0013,-0.0263,0.0215,0.0182,-0.023,-0.0253,-0.0025,-0.0033
-0.0302,0.003,-0.0273,-0.0185,0.0572,0.0548,-0.001,0.0012,-0.026,0.0238,-0.0232,-0.0322,0,0.0358,0.0025,-0.0025,-0.0265,-0.048,0.0435,-0.007,0.0003,0.001,-0.021,-0.0142,-0.0272,-0.0803,-0.0198,0.011,-0.014,-0.016,-0.0158,-0.0213,0.027,0.0535,0.015,0.0093,-0.0052,-0.0095,-0.0137,-0.0208,-0.0092,-0.0063,0.0205,0.0177,-0.028,-0.028,-0.0042,-0.0063
-0.0135,0.0393,0.0115,0.0063,0.0635,0.042,0.0055,-0.0008,0.0035,0.016,0.0047,-0.011,0.0453,-0.0535,0.001,0.0033,-0.0133,-0.0295,0.018,0.014,-0.003,-0.002,-0.021,-0.015,-0.0517,-0.061,-0.0198,0.011,-0.015,-0.0168,-0.0198,-0.025,-0.008,-0.003,0.009,0.0042,-0.01,-0.0147,-0.0105,-0.0225,-0.0095,-0.007,0.0155,0.0128,-0.026,-0.0285,-0.0092,-0.007
-0.0162,0.0338,0.0415,-0.0362,0.0635,0.0057,0.0115,0.0088,-0.0105,0.0283,-0.0232,-0.027,0.0615,-0.0257,0.006,0.009,-0.0025,-0.0068,0.0403,-0.0365,0.006,0.006,-0.01,-0.0077,-0.0405,-0.06,0,-0.007,-0.0053,-0.0085,-0.0038,-0.013,-0.0328,0.0312,0.0125,0.0053,0.0018,-0.0065,-0.0082,-0.0035,0.0013,-0.0045,0.0175,0.0128,0.002,-0.007,0.0025,-0.0013
0.0137,0.035,0.0352,-0.0062,0.0165,0.0175,0.013,0.0075,0.007,0.0438,0.0245,-0.0057,0.0492,-0.0075,0.012,0.0038,-0.029,-0.042,0.0568,-0.007,0.0075,0.0082,-0.0085,-0.0075,-0.0295,-0.0453,-0.0328,-0.0347,-0.0025,-0.0075,0.0002,-0.0108,-0.004,0.013,0.0117,0.0055,0.0013,-0.0055,-0.0088,-0.0068,0.0008,-0.0035,0.017,0.013,-0.002,-0.0045,0.003,0.0002
-0.0157,0.0207,0.0415,0,0.0335,0.0235,0.008,0.0072,-0.0057,0.0328,-0.0188,-0.011,0.0375,0,0.0072,0.0065,0.0168,-0.0033,0.009,0.0103,0.0068,0.0067,-0.0085,-0.0077,-0.0475,-0.038,-0.0358,-0.0142,-0.0032,-0.007,-0.007,-0.0078,0.0185,0.0058,0.0115,0.0053,-0.0022,-0.0085,-0.0012,-0.0122,0.0038,-0.0063,0.015,0.0115,-0.0012,-0.011,0.002,0.0007
0.0143,0.0405,0.0415,-0.0125,0.089,0.0115,0.013,0.008,-0.0228,0.065,0.0095,-0.0217,0.0615,0.057,0.0152,0.0068,-0.008,-0.0198,0.0435,0.032,0.0103,0.0055,-0.006,-0.0042,-0.0077,-0.0442,0.007,0.0222,-0.0028,-0.0072,0,-0.013,0.051,0.036,0.011,0.005,-0.005,-0.0107,-0.0112,-0.0083,-0.0008,-0.0098,0.0152,0.0105,-0.0032,-0.0057,0.0015,0.0015
0.007,0.0575,0.0415,-0.0062,0.0165,0.0295,0.0117,0.005,0.0083,0.0133,-0.0095,0.0055,-0.0035,0.004,0.0107,0.009,-0.0315,-0.0803,0.067,-0.0103,0.0075,0.0055,-0.0098,-0.0075,-0.0405,-0.0678,0.0137,-0.0312,-0.0058,-0.009,-0.0068,-0.0123,-0.008,0.0393,0.01,0.0035,-0.0088,-0.0125,-0.0005,-0.0128,-0.0085,-0.007,0.0133,0.009,-0.015,-0.0115,-0.0042,-0.0015
0.0057,0.0473,-0.0055,-0.042,0.0107,0.0175,0.0095,0.0062,0.0178,0.0312,0.0145,-0.0425,0.0533,0.0275,0.009,0.003,-0.0133,-0.0328,0.0338,0.0068,0.0015,0.0008,-0.0137,-0.0075,-0.0695,-0.0137,-0.01,0.0038,-0.009,-0.0115,-0.001,-0.014,0.0162,0.013,0.0088,0.0017,-0.0102,-0.015,-0.0162,-0.0078,-0.0067,-0.0048,0.0112,0.0062,-0.0235,-0.0223,-0.0025,-0.0048
0.003,0.0505,-0.022,0.0193,0.0393,0,0.0017,0,0.0165,0.0408,-0.0368,-0.0425,0.0335,0.0358,0.0045,0.007,-0.016,-0.0263,0.0338,0.0282,-0.0037,0.0005,-0.0148,-0.0107,-0.0485,-0.037,0.0035,0.0457,-0.0105,-0.0125,-0.0155,-0.0143,0.003,0.013,0.0057,0,-0.0155,-0.0172,-0.0002,-0.0163,0.0005,-0.0115,0.0078,0.0037,-0.0267,-0.0248,-0.007,-0.0063
-0.0312,0.036,-0.0055,-0.059,0.0635,0,0.009,0.0067,0.0083,0.055,-0.0323,-0.0165,0.0492,-0.015,0.0107,0.0048,-0.0265,-0.0198,0.015,-0.0137,0.0043,0.004,-0.0133,-0.0092,-0.01,-0.0617,0.058,0.0185,-0.006,-0.0095,-0.007,-0.007,0.029,0.0088,0.0095,0.002,-0.0042,-0.009,-0.0067,-0.0118,0.005,-0.0128,0.012,0.0065,-0.0032,-0.0095,-0.0005,0.0005
0.0305,0.0505,0.0232,0.0258,0.0335,0.0483,0.0117,0.0097,0.0165,0.065,0.0145,0,0.0257,0.0195,0.0145,0.0065,-0.0107,-0.0358,0.012,0.021,0.0072,0.0052,-0.0098,-0.005,-0.034,-0.0575,-0.06,0.0835,-0.0023,-0.007,-0.0008,-0.0138,-0.03,0.0393,0.0125,0.0045,-0.0005,-0.0085,0.003,-0.0075,0.01,-0.0155,0.0155,0.0097,0.0042,-0.0043,0.0017,-0.002
-0.0082,0.0427,-0.0113,-0.0305,0.0107,0.0483,0.014,0.0112,0.039,0.0488,0,-0.027,0.0657,-0.0037,0.0165,0.008,-0.0212,-0.039,0.0468,0.0358,0.0105,0.0077,-0.0077,-0.0047,0.0128,-0.0522,-0.01,-0.0107,-0.0018,-0.0062,0.001,-0.0098,0.008,0.0103,0.0128,0.0053,-0.002,-0.0088,0.0042,0.0008,0.0098,-0.0135,0.017,0.0112,-0.002,-0.0085,0.0003,0.0017
0.0285,0.0328,0.0293,-0.0642,0.0335,-0.0278,0.0165,0.0075,0.0155,0.022,0.0295,0,0.0183,0.0275,0.0092,0.009,-0.0315,-0.0033,0.0403,0.0103,0.0065,0.0072,-0.0095,-0.0085,-0.0345,-0.0325,-0.0033,0.0222,-0.0035,-0.0082,0.0007,-0.0105,0.0133,-0.0307,0.0125,0.0055,-0.003,-0.0088,0.0005,-0.0145,0.0115,-0.0008,0.0165,0.0102,-0.0088,-0.0063,0.0008,-0.0013
0.0065,0.08,0.0415,0.0193,0,0.0613,0.0142,0.008,0.0165,0.019,-0.041,-0.027,0.0453,0.04,0.0122,0.0075,-0.0585,-0.039,0.081,-0.03,0.006,0.006,-0.0125,-0.005,-0.0215,-0.0513,-0.0358,0,-0.0035,-0.009,-0.007,-0.0175,-0.0128,0.016,0.0125,0.0053,-0.0057,-0.011,-0.0008,-0.0148,0.004,-0.0043,0.0143,0.01,-0.008,-0.0113,0.003,-0.0018
0.0048,0.0427,-0.043,-0.0185,0.0278,0.0175,0.0037,0.015,-0.0115,0.0408,0.0295,-0.0425,0.0657,0.04,0.0085,0.0035,-0.0237,-0.01,0.0635,0.014,0.0035,0.0017,-0.0133,-0.0095,-0.0267,-0.0678,-0.0033,0.0222,-0.0068,-0.01,-0.005,-0.0168,-0.0137,0.0103,0.0105,0.004,-0.0088,-0.0145,-0.0072,-0.0088,0.0018,-0.0072,0.013,0.008,-0.0177,-0.0195,-0.0042,-0.0035
-0.0105,0.0125,0.0057,-0.0362,0.0165,0.0358,0.0072,0.0075,-0.0047,0.0423,-0.0453,-0.0375,-0.0072,-0.0185,0.007,0.0018,-0.008,-0.0263,0.0273,0.0103,0.0023,0.0002,-0.0133,-0.01,-0.0575,-0.0685,-0.0198,0,-0.009,-0.0132,-0.0038,-0.0173,-0.002,0.0268,0.009,0.002,-0.0122,-0.017,-0.003,-0.021,-0.005,-0.0075,0.0107,0.0052,-0.0242,-0.0268,-0.0055,-0.0063
0.013,0.1078,0.0415,0.0605,0.0278,0.0815,0.0032,0.0012,0.0118,0.0118,0,-0.0322,0.0412,0.0318,0.005,0.0042,-0.0365,-0.0358,0.1028,-0.0202,0.004,0.0017,-0.0148,-0.0127,-0.0117,-0.086,0.039,0.03,-0.0083,-0.0125,-0.0065,-0.0168,0.003,0.033,0.0092,0.0028,-0.0057,-0.0122,-0.012,-0.0105,0.0013,-0.006,0.0115,0.0065,-0.0105,-0.0108,-0.0032,-0.0045
0.026,0.025,0.0172,0.0258,0.0635,0.0295,0.0103,0.018,0.013,0.0585,0.0047,-0.0322,0.0412,0.004,0.0117,0.0057,-0.0657,-0.0328,0.0243,-0.0035,0.0075,0.0067,-0.0125,-0.0072,-0.01,-0.0643,-0.0068,0.034,-0.002,-0.0065,-0.0003,-0.0095,0.0237,0.0238,0.014,0.0048,0.0003,-0.0055,0.0023,-0.0048,0.0055,0.0045,0.0175,0.0117,0.0053,-0.0033,0.0023,0.001
-0.003,0.0527,0.0415,0.0325,0.0453,0.0295,0.0242,0.0135,0.013,0.036,-0.0188,-0.0165,0.022,0.0358,0.0145,0.0065,-0.0133,-0.045,0.0533,-0.0137,0.0112,0.006,-0.0085,-0.0057,-0.0072,-0.0548,-0.0068,0.03,-0.0015,-0.0062,0.0062,-0.0065,0.008,0.0058,0.0145,0.0065,0.0018,-0.0067,0.0063,-0.004,0.009,-0.003,0.0185,0.014,0.0035,-0.0065,0.0048,0.0007
-0.0065,0.023,-0.0055,-0.1107,0.0635,0,0.0165,0.0023,0.0105,0.0043,-0.0278,-0.0322,0.0915,0.0235,0.0082,0.0072,-0.0365,-0.0358,0.0533,0.0175,0.0088,0.0063,-0.008,-0.0077,-0.02,-0.0278,-0.01,0.0925,-0.0043,-0.0077,0.0025,-0.0183,0.0195,0.0685,0.0147,0.006,-0.002,-0.0088,0.0013,-0.0068,-0.0012,0.004,0.0183,0.0135,-0.002,-0.0088,0.001,-0.0005
-0.014,0.0645,0.0415,-0.0305,0.0278,0.0358,0.004,0.007,-0.0115,0.0238,-0.0663,0.0288,0.0492,0.0748,0.0125,0.0075,-0.0133,-0.039,0.012,0.0032,0.008,0.0065,-0.013,-0.007,-0.006,-0.067,-0.0133,-0.0142,-0.004,-0.009,-0.0023,-0.018,0.0365,0.0375,0.0157,0.0055,-0.0045,-0.01,-0.0005,-0.0085,0.0025,-0.0045,0.0187,0.0117,-0.0062,-0.0072,0.0015,-0.0023
0.0223,0.0272,0.0415,-0.0305,0.0635,-0.0587,0.0077,0.0127,0.0215,-0.0072,-0.0048,-0.0322,0.022,0.0195,0.0075,0.006,-0.0237,-0.0033,0.0305,0.021,0.0055,0.004,-0.0133,-0.007,0.012,-0.0628,0.007,0.0377,-0.006,-0.0112,-0.001,-0.0075,0.0175,0.013,0.0122,0.004,-0.0065,-0.0132,-0.01,-0.0195,-0.0062,-0.006,0.015,0.0092,-0.0147,-0.0145,-0.0002,-0.0015
-0.015,0.0092,-0.0113,0.0063,0.0453,0.0483,0.0032,0.0053,-0.0105,0.0238,-0.0368,0.0348,0.0533,0,0.0075,0.0003,-0.044,-0.06,0.0773,-0.0137,0.001,0.0025,-0.0172,-0.0122,-0.0227,-0.0558,0.021,0.0072,-0.0097,-0.0132,-0.0078,-0.0165,0.0442,0.0028,0.01,0.0013,-0.0107,-0.0165,-0.0005,-0.0103,0.0038,-0.0098,0.0107,0.0062,-0.0235,-0.0225,-0.0045,-0.006
0.0023,0.0705,0.0115,-0.042,0.0278,0.0115,0.0072,0.0042,-0.0127,0.019,-0.041,-0.0165,0.0785,0.0275,0.0037,0.0027,0.0113,-0.023,0.0568,0.0248,-0.003,0.0008,-0.0192,-0.0145,-0.03,-0.0522,-0.0358,0.0263,-0.012,-0.0142,-0.0038,-0.0108,0.0152,0.036,0.0063,-0.0002,-0.014,-0.0185,0.0018,-0.013,0.0028,-0.0152,0.008,0.003,-0.0282,-0.0265,-0.0063,-0.0055
0.0137,0.0272,0.0057,-0.0802,0.0107,-0.0222,0.0152,0.0067,-0.0315,0.0963,-0.0188,-0.0425,0.0297,-0.0075,0.0047,0.0055,-0.049,-0.0745,0.0635,0.0068,0.005,0.0057,-0.0107,-0.0057,-0.0175,-0.0713,0,0.0263,-0.0045,-0.0092,0.001,-0.0078,0.002,0.0253,0.012,0.0042,0,-0.0075,0.0033,-0.0098,0.006,-0.0083,0.0135,0.008,0.0015,-0.0053,0.0003,-0.0003
0.013,0.0382,-0.0113,-0.0185,0.0453,0.0548,0.0172,0.0072,0.0455,0.0133,-0.0495,0.0055,0.0575,0.0613,0.0097,0.0095,0,-0.06,0,0,0.0103,0.009,-0.0092,-0.0088,-0.0382,-0.0478,0.0245,0.034,-0.002,-0.007,-0.0008,-0.0125,0.0175,-0.0292,0.0132,0.0048,0.0025,-0.0065,0.0008,-0.0015,0.0028,0.0115,0.0162,0.0097,0.0063,-0.0028,0.0035,-0.0003
-0.0042,0.045,-0.0113,-0.0362,-0.026,0.0548,0.014,0.011,0.024,0.039,-0.0453,-0.0375,-0.0035,0.0155,0.0103,0.0053,-0.0212,0,0.015,0.0395,0.0083,0.0067,-0.0095,-0.01,-0.0317,-0.0878,0,0.0222,-0.002,-0.0082,0.003,-0.0083,0.0215,0.0175,0.0147,0.0057,0.001,-0.0072,0.0057,-0.0068,0.0063,-0.002,0.0162,0.0107,0.0042,-0.0015,0.0028,-0.0008
0.007,0.0527,0.0352,-0.0533,0.022,0.0745,0.0172,0.0135,-0.0115,0.0345,-0.041,0.0055,0.0035,0,0.0067,0.0072,-0.061,-0.048,0.0845,0.0395,0.0075,0.0067,-0.0125,-0.0082,-0.0192,-0.072,0.0035,0.058,-0.0025,-0.0082,0.0007,-0.0085,0.0432,0.0297,0.0137,0.0053,-0.0025,-0.008,0.0023,-0.0145,0.0093,-0.001,0.0162,0.0092,-0.001,-0.0057,0.0038,-0.0003
-0.0185,0.022,0.0232,0.0193,0.0697,0,0.0117,0.0035,0.0155,0.0503,-0.0537,-0.0322,-0.0035,0.0118,0.005,0.0065,-0.0185,-0.0198,0.021,0.0395,0.0043,0.0055,-0.0122,-0.0092,-0.029,-0.0617,-0.045,0.0263,-0.0045,-0.0095,-0.0043,-0.0103,0.0625,0.0488,0.0135,0.0045,-0.0042,-0.011,-0.0045,-0.002,0.0057,-0.006,0.014,0.0075,-0.004,-0.015,0,-0.001
0.028,0.0527,-0.0165,-0.042,0.0955,0.0115,0.0095,0.0072,-0.007,-0.0155,0.0047,-0.0217,0.0453,0.0358,0.004,0.002,-0.029,-0.0033,0.0243,-0.017,0.002,0.002,-0.0175,-0.0103,-0.017,-0.0678,0.007,0.0418,-0.007,-0.0115,-0.0053,-0.0093,0.0122,-0.0057,0.011,0.0023,-0.0088,-0.0132,-0.0072,-0.007,-0.0052,-0.0043,0.01,0.0045,-0.012,-0.0228,-0.003,-0.006
-0.01,0.0427,0.0172,0.0258,0.0393,0.0175,0.0075,0.001,-0.0092,0.0375,0.0047,0.0408,0.0297,0,0.0037,0.0008,-0.0107,-0.0745,0.0435,0.014,0.0025,-0.0005,-0.0175,-0.0132,-0.0328,-0.0315,0.007,0.0185,-0.0097,-0.0137,-0.006,-0.0125,0.0257,0.052,0.0077,0.0002,-0.012,-0.0175,-0.0135,-0.0163,-0.0038,-0.0038,0.0065,0.002,-0.0215,-0.0265,-0.0055,-0.0075
-0.0065,0.023,0,-0.0305,0.0955,0.0235,0.0025,-0.0015,-0.0172,0.0015,0.0295,0.017,0.0145,0.0485,-0.004,-0.0003,-0.0212,-0.054,0.067,0.014,-0.0045,-0.001,-0.0172,-0.0135,-0.0272,-0.0593,-0.0033,-0.028,-0.012,-0.0155,-0.0115,-0.0175,0.0215,-0.003,0.005,-0.0023,-0.0145,-0.0177,-0.0085,-0.0215,-0.0077,-0.0128,0.004,-0.0013,-0.028,-0.0258,-0.0103,-0.009
0.0173,0.0112,0.0293,-0.0305,0.0697,0.0295,0.0127,0.0097,0.007,0.0268,-0.0188,0.0055,-0.0107,0.0748,0.002,0.0033,-0.029,-0.042,0.0568,-0.0397,0.0038,0.0037,-0.0157,-0.0097,0.0005,-0.0777,0.0172,-0.0477,-0.0045,-0.0088,-0.0028,-0.0072,0.005,0.0223,0.011,0.0017,0.0008,-0.0075,-0.0045,-0.011,0.0013,-0.0053,0.0103,0.005,0.0013,-0.0035,-0.0005,-0.0033
-0.0105,0.0393,-0.0325,-0.0305,0.022,0.0115,0.006,0.0133,0.019,0.0205,0.0145,-0.011,0.0533,-0.0037,0.011,0.0053,-0.0185,-0.0358,0.0702,0.021,0.0088,0.007,-0.0127,-0.011,-0.0077,-0.0343,0.0317,0.058,-0.0025,-0.0077,0,-0.0075,0.0175,0.0015,0.013,0.003,0.0013,-0.006,0.0128,-0.007,-0.001,0.0008,0.0125,0.0075,0.0055,-0.0035,0.0008,0.0005
-0.0088,0.0165,-0.0055,-0.0477,0.0278,0.0115,0.0103,0.0092,-0.0092,0.0283,-0.0232,-0.0575,0.0657,0.0155,0.0012,0.0038,-0.039,-0.0295,0.05,0.0068,0.008,0.0052,-0.012,-0.0103,-0.0142,-0.0593,-0.0068,0.0072,-0.0023,-0.0082,0.0017,-0.0158,0.0355,0.0028,0.0128,0.0032,-0.0002,-0.0092,0.0013,-0.004,-0.0042,-0.0168,0.0125,0.006,0.003,-0.011,-0.0005,-0.004
0.0137,0.0155,-0.0165,-0.0062,0.0055,0.0235,0.0032,0.0062,-0.0115,0.036,0.0047,-0.027,0.0335,0.004,0.0008,0.0045,-0.0315,-0.0133,0.099,0.0175,0.0043,0.0063,-0.014,-0.0072,0.0043,-0.047,-0.039,0,-0.0043,-0.0095,0.006,-0.0133,-0.0235,-0.0307,0.0117,0.0025,-0.0015,-0.0095,-0.0008,-0.0075,0.0078,0.0017,0.012,0.0055,-0.0027,-0.0045,0,-0.0038
-0.0035,0.046,-0.0165,0,0.0825,-0.0113,0.0072,0.0032,-0.007,0.0205,0.0047,-0.067,0.0492,0.0358,0.0012,0.0053,-0.0365,-0.048,0.0435,0.0708,0.003,0.0042,-0.0163,-0.0132,-0.0295,-0.0333,-0.0198,-0.0107,-0.0055,-0.0107,0.0055,-0.012,-0.008,-0.053,0.01,0.0013,-0.0065,-0.0125,-0.0042,0.0017,0.0018,-0.006,0.0088,0.0037,-0.0095,-0.0128,-0.0012,-0.0043
-0.015,0.0598,0.0172,-0.0185,0.0955,-0.017,0.0015,-0.0025,-0.039,0.0088,-0.0278,-0.0322,0.096,0.0195,0.0023,-0.0005,-0.044,0.0035,0.1065,0.014,0.0015,0,-0.0185,-0.015,-0.006,-0.0738,0.007,0.0222,-0.0083,-0.0132,-0.002,-0.012,0,-0.0157,0.0067,-0.0012,-0.0097,-0.0155,0.0015,-0.0075,-0.0008,-0.0198,0.0048,0.0002,-0.017,-0.022,-0.0042,-0.0093
0.01,0.0145,0.0057,-0.0533,0.0635,0.042,-0.0003,-0.0003,0.0095,0.0455,-0.0095,-0.0375,0.0657,0.0235,-0.003,-0.0015,-0.0772,-0.039,0.015,0.0282,-0.0032,-0.001,-0.0215,-0.0177,-0.0215,-0.0513,0.0317,0.0418,-0.0123,-0.0157,-0.002,-0.0185,0.0112,-0.0057,0.0037,-0.0045,-0.0132,-0.0183,-0.0047,-0.0137,-0.0085,-0.012,0.0015,-0.0028,-0.025,-0.0318,-0.0097,-0.0105
0.0065,0.0338,0.0232,-0.0697,0.0955,0.0815,-0.0085,0.002,0,0.0568,-0.0368,0,0.0035,-0.0112,-0.0055,-0.0015,-0.0512,-0.06,0.0918,-0.0035,-0.006,-0.0032,-0.026,-0.02,-0.0382,-0.0835,-0.0358,-0.0347,-0.015,-0.0182,-0.009,-0.0223,0.006,0.0268,-0.0005,-0.0078,-0.0168,-0.022,-0.0202,-0.0185,-0.0082,-0.0128,-0.0038,-0.0065,-0.0337,-0.0288,-0.0137,-0.014
-0.015,-0.014,0.0115,-0.042,0.0335,0.0057,-0.0038,-0.0005,0.0035,0.0408,-0.0623,-0.0217,0.0743,-0.0185,-0.0023,0.0018,0,-0.0198,0.003,0.0587,0.0005,0.0008,-0.019,-0.0162,-0.0222,-0.0505,-0.0033,0.0185,-0.0112,-0.0152,-0.005,-0.0208,-0.006,0.0072,0.0012,-0.0067,-0.007,-0.0132,-0.0112,-0.0217,-0.006,-0.013,0.0002,-0.005,-0.0085,-0.0128,-0.0092,-0.0075
-0.0252,0.0438,0.0293,-0.0185,-0.0105,0.0115,-0.0025,0.0045,-0.026,0.0423,-0.0188,-0.0217,0.0375,0.004,0.0008,-0.0015,-0.029,-0.042,0.021,0.014,0.005,0.004,-0.018,-0.0122,-0.006,-0.0558,-0.042,-0.0035,-0.007,-0.0125,-0.0065,-0.0173,0.0162,-0.003,0.0025,-0.0067,-0.004,-0.0125,-0.006,-0.0168,0.0125,-0.0108,-0.0002,-0.006,-0.0047,-0.0128,-0.0015,-0.007
-0.0082,0.0178,0.0232,-0.0477,0.0635,-0.0113,0.0055,0.0023,-0.0315,0.0238,-0.0232,-0.0217,0.0412,-0.015,-0.001,0.0012,-0.0585,-0.057,0.05,0.021,0.0058,0.0063,-0.0192,-0.0155,-0.0317,-0.06,0.0137,0.054,-0.0075,-0.0125,-0.003,-0.019,0.0237,0.0058,0.0008,-0.008,-0.0075,-0.0137,0.0018,-0.006,0.0045,-0.0118,-0.0027,-0.008,-0.0075,-0.0145,-0.006,-0.0078
0.0005,0.0563,-0.0165,-0.0245,0.0335,0.042,0.0035,0.0035,0.0083,-0.0112,-0.058,-0.0525,0.0035,-0.0365,-0.005,-0.0027,-0.0365,-0.0328,0.05,-0.0035,0.005,0.0075,-0.019,-0.014,-0.0367,-0.0653,0.0035,0.054,-0.01,-0.0147,-0.0023,-0.0168,0.008,0.036,-0.0035,-0.011,-0.0107,-0.0168,0.0025,-0.0023,0.006,-0.0065,-0.007,-0.0112,-0.0132,-0.02,-0.0072,-0.0105
0.0137,0.002,-0.0273,-0.0362,-0.0053,0.0358,0.0072,-0.0035,-0.0047,-0.032,-0.0048,0.017,0.0412,0.0658,-0.0038,-0.0068,0.0055,-0.039,0.1065,0.014,0.003,0.0042,-0.0207,-0.018,-0.0222,-0.0643,-0.0033,0.058,-0.011,-0.0147,-0.0018,-0.0195,0.0122,0.0088,-0.0055,-0.0135,-0.011,-0.0183,0.001,-0.005,0.0038,0.001,-0.0107,-0.0145,-0.0177,-0.026,-0.0088,-0.0098
0.0113,0.0135,0.054,-0.0062,0.0825,0.042,0.0023,0.0012,-0.0432,-0.0142,0,-0.0165,0.0335,0,-0.0043,-0.0127,-0.029,-0.039,0.0305,0.0248,0.0015,0.0005,-0.0225,-0.0237,-0.0282,-0.0155,-0.0358,0.0038,-0.0143,-0.0182,0,-0.021,-0.0347,-0.017,-0.009,-0.0168,-0.0162,-0.0217,-0.0038,-0.0213,-0.0147,-0.0137,-0.0158,-0.0192,-0.0325,-0.0318,-0.0152,-0.0152
-0.0065,0.0112,-0.0377,-0.1057,0.022,0.0483,-0.0053,-0.0075,-0.072,-0.0112,0,-0.0322,-0.0072,0.0155,-0.0095,-0.0065,-0.0315,-0.0745,-0.0287,0.0473,-0.0022,0.0008,-0.0255,-0.0215,-0.021,-0.0388,0.0352,0.0222,-0.0175,-0.02,-0.001,-0.027,-0.011,-0.0088,-0.012,-0.0197,-0.021,-0.0245,-0.0045,-0.0155,-0.0075,-0.0118,-0.02,-0.0228,-0.0365,-0.0348,-0.018,-0.0183
-0.029,0.0328,-0.022,-0.0362,0.0453,0.0057,-0.008,-0.0053,-0.016,0.0103,-0.0368,-0.0322,0.096,0.0118,-0.0113,-0.0027,-0.0415,-0.0165,0.018,-0.007,-0.0042,0.0002,-0.0325,-0.0212,0.0018,-0.046,-0.01,-0.0035,-0.0208,-0.0232,-0.0095,-0.0175,0.0257,0,-0.0143,-0.0208,-0.023,-0.0275,-0.0125,-0.0118,-0.0025,-0.0165,-0.023,-0.0248,-0.0437,-0.041,-0.0195,-0.0185
0.013,0.0518,0,0.0193,0.0335,-0.0057,-0.0048,-0.0078,-0.0537,0.0015,-0.058,0.0055,0,-0.0257,-0.0015,-0.0068,-0.0702,-0.039,0.0635,-0.0267,0.0005,0,-0.0297,-0.0215,-0.025,-0.0522,0.028,-0.0477,-0.0155,-0.0202,-0.0113,-0.0208,0.0322,-0.0042,-0.0123,-0.0187,-0.0128,-0.0202,-0.0012,-0.0135,-0.0047,-0.0208,-0.019,-0.022,-0.0235,-0.0232,-0.013,-0.016
-0.0157,0.0207,0.0352,0,0.0107,0.0613,0.001,-0.0008,-0.024,0.0058,-0.0453,0.0055,0.0297,0.098,-0.0053,-0.0065,-0.0537,-0.045,0.021,0.0358,0.0063,0.0048,-0.0205,-0.017,-0.0192,-0.0478,-0.0198,0.0377,-0.0112,-0.0165,-0.002,-0.017,-0.006,0.0145,-0.0085,-0.0168,-0.0082,-0.015,0.0003,-0.0057,-0.0015,-0.0103,-0.016,-0.0185,-0.017,-0.0208,-0.0115,-0.0152
-0.0195,0.0083,-0.0165,-0.0305,0.0335,0.0057,0.0062,0.0032,-0.016,-0.0252,-0.0232,-0.027,0.0412,0.0195,-0.0053,-0.0027,-0.0053,-0.01,0.0403,0.0358,0.0048,0.0065,-0.0207,-0.017,-0.0277,-0.0643,0,0.0185,-0.0112,-0.0168,-0.005,-0.0235,0.0555,0.0488,-0.0083,-0.0165,-0.0075,-0.016,0.0078,-0.0173,-0.0117,-0.009,-0.0145,-0.0185,-0.0107,-0.0175,-0.0103,-0.0125
-0.0047,0.0295,0.0352,-0.075,0.0572,0.0548,0.001,-0.002,-0.064,-0.0085,-0.0323,0.017,0.0107,-0.0112,-0.0048,-0.0027,-0.0053,-0.0745,0.06,0.0282,0.0038,0.0045,-0.025,-0.0165,-0.0215,-0.0478,0.0502,-0.0637,-0.012,-0.0168,-0.0035,-0.0155,0.05,-0.0142,-0.0103,-0.0175,-0.0092,-0.0183,0.004,-0.0105,0.0048,-0.01,-0.0162,-0.02,-0.0248,-0.0225,-0.0105,-0.0125
0.0113,0.0072,0.0232,-0.0305,0.0278,0.0235,0.0008,-0.0003,-0.0568,-0.0085,-0.0048,-0.0375,0.0145,-0.033,-0.0048,-0.003,-0.0415,-0.063,0.0338,0.0358,0.002,0.0023,-0.0217,-0.0185,-0.0152,-0.0343,-0.0165,0.1015,-0.0125,-0.0177,-0.0073,-0.0203,0.042,0.0375,-0.0097,-0.0177,-0.0112,-0.017,0.0063,-0.025,0.0055,-0.0118,-0.018,-0.0215,-0.027,-0.0288,-0.014,-0.0143
-0.0145,0.0338,0.0115,-0.0245,0.0513,0.0175,-0.0038,-0.0015,-0.0315,0.0268,0.0095,-0.0525,0.0615,0.0118,-0.0083,-0.0047,0.0027,-0.039,0.0273,-0.007,-0.001,0.001,-0.0272,-0.0187,-0.0215,-0.0845,-0.042,0.0222,-0.015,-0.0192,-0.015,-0.0218,0.0205,0.0268,-0.0128,-0.0187,-0.0145,-0.02,-0.0077,-0.0168,0.0008,-0.0125,-0.0208,-0.0225,-0.0337,-0.0348,-0.018,-0.0175
0.0143,0.0405,-0.0113,-0.059,0.0335,0,-0.0125,-0.006,-0.038,-0.0057,0,-0.0425,0.0453,0.0235,-0.0078,-0.0068,-0.029,-0.0165,0.0435,0.0282,-0.0035,-0.0008,-0.029,-0.02,-0.0267,-0.067,-0.01,0.0222,-0.0192,-0.022,-0.0145,-0.031,-0.011,0.0175,-0.0143,-0.0208,-0.0165,-0.0223,-0.0145,-0.0198,-0.0095,-0.012,-0.023,-0.0248,-0.037,-0.039,-0.019,-0.0218
-0.019,-0.036,-0.043,-0.0125,0.0825,0.0295,-0.0065,-0.0053,0.007,0.0268,-0.0188,0.0113,0.0453,0.004,-0.0118,-0.007,-0.049,-0.0133,0.0635,0.0103,-0.0075,-0.002,-0.0287,-0.0263,-0.0465,-0.0548,-0.051,0,-0.0217,-0.024,-0.017,-0.0278,-0.002,0.0043,-0.0173,-0.023,-0.0195,-0.0242,-0.0147,-0.0228,-0.013,-0.0215,-0.0265,-0.0275,-0.0447,-0.0445,-0.024,-0.0213
-0.006,-0.004,-0.0113,-0.0062,0.0453,-0.0057,-0.0055,-0.0015,-0.007,0.0058,-0.0232,-0.0475,0.0375,0.0195,-0.0057,-0.0077,-0.008,-0.0688,0.0635,0.0282,-0.0025,-0.0008,-0.0258,-0.0222,-0.03,-0.0777,-0.0198,0.0622,-0.0163,-0.0205,-0.0113,-0.0228,-0.011,0.0072,-0.015,-0.022,-0.0082,-0.0162,-0.007,-0.0173,-0.0092,-0.0103,-0.0227,-0.025,-0.026,-0.026,-0.0155,-0.0195
-0.0135,0.0282,0.0352,-0.0125,0.0453,0,0.0005,-0.0003,-0.0338,0.0118,-0.041,0.0348,0.0453,0,-0.0015,-0.004,-0.0315,-0.06,0.0243,0.0032,0.0028,0.0055,-0.0228,-0.016,-0.017,-0.082,0.0035,0.0498,-0.011,-0.0177,-0.0068,-0.0138,0.0322,0.0253,-0.0115,-0.019,-0.0045,-0.0125,0.003,-0.009,-0.0012,-0.0118,-0.019,-0.0225,-0.0172,-0.0208,-0.0135,-0.0155
-0.0172,0.0103,0.0415,-0.0185,0.0825,0.0057,-0.0025,-0.0013,0,0.0015,-0.0095,0.017,0.0072,0.04,0.0008,-0.0042,0.0463,-0.042,0.0568,0.014,0.0043,0.0052,-0.021,-0.018,-0.0447,-0.0488,-0.051,0,-0.011,-0.0172,-0.0078,-0.0148,0.003,0,-0.0103,-0.0183,-0.0048,-0.013,0.0013,-0.0108,0.0003,-0.0125,-0.0172,-0.0203,-0.0135,-0.0195,-0.0107,-0.0133
-0.0257,0.0135,0.0172,0.0063,0.0335,0.0745,0.0005,-0.0033,-0.026,0.0268,-0.0495,-0.108,0.0575,0.004,-0.0043,0.0003,-0.029,-0.039,0.0738,-0.0035,0.0015,0.0052,-0.0252,-0.0162,0.0005,-0.0495,0,0.058,-0.012,-0.0182,-0.0128,-0.0115,0.03,0.0145,-0.0105,-0.0185,-0.008,-0.0155,-0.003,-0.014,-0.004,-0.003,-0.0175,-0.0203,-0.019,-0.0263,-0.0128,-0.0138
-0.0248,0.0187,0.0477,-0.0305,0.0453,-0.0278,0.0012,0.0047,-0.0183,0.0253,0,-0.0622,0.0145,-0.0432,-0.0015,-0.0053,-0.0212,-0.042,0.05,0.021,0.001,0.0025,-0.0228,-0.021,-0.0442,-0.072,0.0317,-0.0178,-0.013,-0.0182,-0.0048,-0.018,0.0682,0.0205,-0.01,-0.0187,-0.007,-0.016,0.0042,-0.0128,0.0048,-0.0108,-0.0177,-0.0213,-0.0272,-0.0243,-0.0147,-0.0173
0.007,0.0178,0.0293,0.0258,0.0335,0.0057,-0.002,-0.0033,-0.0272,-0.0072,-0.0095,-0.0322,0.0492,0.0358,-0.0118,-0.0062,-0.034,-0.01,0.0273,-0.007,-0.0015,0.001,-0.0263,-0.0177,-0.0317,-0.0835,0.0317,0.0222,-0.0152,-0.0208,-0.0043,-0.021,0.028,0.0345,-0.0118,-0.0197,-0.0117,-0.0208,-0.01,-0.0163,-0.0082,-0.009,-0.0208,-0.0243,-0.0332,-0.0355,-0.0145,-0.0175
-0.0248,-0.009,0.0057,-0.0125,0.089,0.042,-0.0068,-0.0033,0.0023,0.0118,-0.0188,-0.0217,0.0615,-0.0037,-0.0108,-0.005,-0.0365,-0.042,0.0533,0.0282,-0.0065,-0.0023,-0.0263,-0.0215,-0.04,-0.0425,-0.0133,0.0418,-0.0173,-0.023,-0.0108,-0.0268,0.0228,0.0175,-0.016,-0.0223,-0.0172,-0.0202,-0.0095,-0.021,-0.0137,-0.0145,-0.025,-0.0265,-0.0417,-0.036,-0.0197,-0.0208
-0.0088,0.0125,-0.022,0.0063,0.0635,0.0295,-0.0152,-0.0075,0.0023,-0.0182,-0.041,-0.0375,0.0107,0.0235,-0.009,-0.0085,-0.0133,-0.0775,0.0273,0.021,-0.0075,-0.0025,-0.031,-0.0232,-0.0267,-0.0522,-0.023,-0.0107,-0.0208,-0.025,-0.0135,-0.0273,-0.007,0.016,-0.0173,-0.025,-0.0187,-0.0223,-0.0157,-0.0267,-0.0112,-0.0238,-0.0285,-0.0295,-0.0452,-0.0418,-0.0208,-0.0238
-0.0008,0.0393,0.0415,0,0.0055,-0.0057,-0.01,0.0012,-0.0475,-0.0515,-0.041,-0.0475,0.0375,0.004,-0.0105,-0.0115,-0.039,-0.066,0.067,0.0395,-0.0088,-0.0043,-0.0297,-0.025,-0.02,-0.061,-0.023,0.0072,-0.0213,-0.0245,-0.0128,-0.0275,0.0195,-0.0127,-0.0183,-0.025,-0.0168,-0.0205,-0.023,-0.0288,-0.0085,-0.0183,-0.0292,-0.0308,-0.044,-0.0413,-0.0215,-0.0245
-0.0135,0.0405,0.0057,0,0.0165,0.042,-0.0093,-0.003,-0.0127,0.0253,-0.0232,-0.011,0.022,0.0195,-0.0085,-0.0038,-0.039,-0.0718,0.0468,0.0248,-0.0008,0.0032,-0.0248,-0.0185,-0.0205,-0.0617,0.0317,0.0263,-0.0125,-0.0187,-0.0105,-0.014,0.0185,0.033,-0.014,-0.0215,-0.0057,-0.0115,0.0045,-0.0068,-0.004,-0.0088,-0.0223,-0.0243,-0.0183,-0.0198,-0.014,-0.0138
-0.0042,-0.0415,-0.0113,0,0.022,0.0235,0.004,-0.0057,-0.0023,0.036,-0.0663,-0.011,-0.0072,0.098,-0.007,-0.0032,-0.0315,-0.045,0.006,0.0358,-0.0005,0.0035,-0.0243,-0.0165,0.0018,-0.0685,0.0352,-0.0312,-0.0115,-0.018,-0.005,-0.013,0.0103,-0.003,-0.0125,-0.0212,-0.0052,-0.0125,0.0055,-0.0145,0.0005,-0.0083,-0.0217,-0.0238,-0.0135,-0.0195,-0.0143,-0.0148
-0.0008,-0.0405,0.0415,-0.075,0.0107,0.0175,-0.0078,-0.002,0.0202,0.0015,-0.0495,-0.027,0.0107,0.0613,-0.0033,-0.002,-0.0633,-0.0328,0.015,0.0282,0.0013,0.0045,-0.0228,-0.0175,-0.0322,-0.0325,0.028,-0.0312,-0.0128,-0.0187,-0.0078,-0.0232,0.0122,0,-0.0135,-0.0217,-0.0057,-0.016,0.002,-0.0243,0.004,-0.008,-0.0223,-0.0238,-0.0197,-0.027,-0.0145,-0.0152
0.0088,0.036,-0.0113,-0.0802,0.0635,0.0613,0.0025,-0.0072,-0.0047,0.0298,-0.041,-0.0475,0.022,0.0155,-0.0025,-0.0085,-0.0585,-0.042,0.118,0.032,0.0003,0.0005,-0.023,-0.0202,-0.0157,-0.054,-0.0263,0.0072,-0.0125,-0.02,-0.01,-0.0198,-0.0118,0.0345,-0.0137,-0.0215,-0.0075,-0.0155,0.0078,-0.0155,-0.0015,-0.0063,-0.0223,-0.0245,-0.0232,-0.026,-0.0168,-0.015
-0.0212,-0.005,-0.0113,-0.0362,0.0513,0.0115,-0.0048,0.0012,-0.0295,-0.0182,-0.0495,-0.0322,0.0297,0.0078,-0.0083,-0.0075,-0.039,-0.0688,0.0568,0.051,-0.003,-0.0003,-0.0252,-0.0227,-0.0215,-0.0853,-0.0358,0.0148,-0.0152,-0.021,-0.014,-0.0223,0.001,0.0223,-0.0143,-0.023,-0.011,-0.0185,-0.0085,-0.0187,0.0072,-0.0178,-0.0242,-0.0272,-0.0345,-0.035,-0.0172,-0.0183
0.0168,0.0263,0.0352,-0.0245,0.0165,0.042,0.0005,-0.0045,-0.0272,-0.0085,-0.0143,0.0055,-0.0312,0.0078,-0.0095,-0.009,0.0055,-0.0033,0.0568,0,-0.0077,-0.0028,-0.029,-0.0227,-0.04,-0.0812,0.0137,0.054,-0.0183,-0.0232,-0.0118,-0.0273,0.0802,0.0088,-0.017,-0.025,-0.0152,-0.022,-0.008,-0.0145,-0.0085,-0.007,-0.028,-0.0293,-0.0423,-0.0405,-0.02,-0.0208
-0.0207,0.001,-0.0165,0.0063,0.0393,-0.0057,-0.0033,-0.008,-0.0228,-0.0155,-0.0323,-0.0165,0.022,0.0235,-0.0095,-0.0085,-0.0537,-0.063,0.037,0.075,-0.0082,-0.0057,-0.0305,-0.0285,-0.0502,-0.046,0.028,0.0185,-0.0208,-0.0262,-0.0105,-0.0238,-0.001,0.016,-0.0195,-0.0275,-0.0195,-0.024,-0.009,-0.0255,-0.006,-0.009,-0.0315,-0.0328,-0.0427,-0.0405,-0.025,-0.0235
-0.003,0.0198,0.0115,-0.0125,0.076,-0.0113,-0.007,-0.004,-0.0105,0.0118,-0.0232,0,0.0335,0.0318,-0.0148,-0.0133,-0.068,-0.042,0.0243,0.014,-0.011,-0.009,-0.0338,-0.027,-0.0427,-0.0703,0.0317,0.0498,-0.0238,-0.0275,-0.0218,-0.0315,0.005,-0.0127,-0.024,-0.0297,-0.0245,-0.0267,-0.0205,-0.0325,-0.0168,-0.0188,-0.034,-0.0355,-0.0585,-0.0483,-0.0262,-0.0275
-0.0025,0.0415,-0.0377,-0.0697,0.0393,0.042,-0.0133,0.0015,-0.068,-0.0357,-0.0232,-0.0475,0.0145,0.0613,-0.0143,-0.0035,-0.008,-0.045,0.05,0,-0.009,-0.0043,-0.0335,-0.026,-0.0125,-0.0425,-0.0358,0.0377,-0.0208,-0.026,-0.0145,-0.0345,-0.01,0.0393,-0.021,-0.028,-0.0155,-0.0198,-0.0105,-0.0238,-0.0107,-0.0288,-0.031,-0.0328,-0.0335,-0.0343,-0.0225,-0.0245
-0.01,0,-0.0773,0,0.0572,0.0057,-0.0035,0.0025,-0.037,0.0015,-0.0278,-0.067,0.0412,0.0275,-0.0103,-0.004,-0.0265,-0.0857,0.0403,0.0175,-0.0035,0.0005,-0.0275,-0.0207,-0.0295,-0.0617,-0.0358,0.075,-0.0152,-0.0215,-0.011,-0.024,0.066,-0.0015,-0.0177,-0.0252,-0.0095,-0.0158,-0.0067,-0.0193,0.0023,-0.0173,-0.0275,-0.03,-0.022,-0.0232,-0.0202,-0.02
0.0155,0.0295,0.0352,-0.0642,0.0335,0.0057,-0.001,-0.0025,-0.0217,0.0145,-0.0143,-0.0165,0.0183,-0.015,-0.007,-0.0062,-0.0512,-0.048,0.06,-0.017,-0.003,-0.0008,-0.0272,-0.02,-0.0255,-0.0713,-0.0165,0,-0.014,-0.0208,-0.007,-0.0208,0.008,0.0058,-0.018,-0.0255,-0.011,-0.0177,-0.006,-0.018,-0.0057,-0.0185,-0.0272,-0.0297,-0.0217,-0.0268,-0.014,-0.0173
-0.0202,0.0282,-0.0113,-0.042,0.0697,-0.0222,-0.0053,0.0042,-0.0328,0.0312,0.0612,-0.0165,0.0297,0.0235,-0.0118,-0.0042,-0.068,-0.054,0.0635,-0.0035,-0.0067,-0.0013,-0.0308,-0.0192,-0.0295,-0.0845,0.0172,-0.0445,-0.0177,-0.0232,-0.0158,-0.0228,0.0237,-0.0412,-0.0192,-0.0275,-0.0135,-0.0205,-0.0137,-0.018,-0.0032,0.0027,-0.0307,-0.0323,-0.031,-0.0305,-0.019,-0.0192
-0.0185,0.0112,0.0232,-0.0125,0.0278,0.042,0.008,0.0045,-0.061,-0.0277,-0.0188,-0.011,0.0615,-0.0222,-0.0108,-0.0047,-0.0728,-0.06,0.0273,0.0282,-0.007,-0.0017,-0.031,-0.0257,-0.034,-0.036,0.0245,-0.038,-0.0177,-0.0235,-0.0103,-0.0263,0.0237,0.052,-0.0225,-0.0303,-0.0182,-0.023,-0.007,-0.0255,-0.0117,-0.0128,-0.0345,-0.0355,-0.0357,-0.0328,-0.021,-0.021
-0.01,0.023,0.0172,-0.0185,0.022,0.0745,0,0.009,-0.06,0.0283,0.0195,0.0113,0.022,0.0318,-0.015,-0.011,-0.034,-0.0295,0,0.032,-0.0032,0.0005,-0.032,-0.0277,-0.049,-0.0213,-0.0133,-0.0178,-0.022,-0.0267,-0.0123,-0.026,0.0257,0.0118,-0.0283,-0.0355,-0.025,-0.031,-0.0105,-0.018,-0.009,-0.0088,-0.04,-0.0408,-0.0462,-0.0438,-0.0245,-0.0253
-0.0195,0.0092,0.0232,-0.0245,0.0635,-0.017,-0.004,0.0118,-0.069,-0.017,-0.0095,0.0055,0.0145,0.0275,-0.021,-0.0205,-0.0133,-0.066,0.018,-0.0103,-0.0022,0.0012,-0.0373,-0.0307,-0.0135,-0.0388,0,0.0222,-0.026,-0.0275,-0.011,-0.029,0.03,0.044,-0.0363,-0.0417,-0.0353,-0.0375,-0.0118,-0.035,-0.012,-0.0158,-0.0445,-0.0448,-0.057,-0.049,-0.029,-0.0283
-0.0202,0.0053,0.0232,-0.0185,0.0825,0.0235,-0.0005,0.004,-0.066,-0.0462,0.0295,-0.0622,0.0335,0.0275,-0.0273,-0.0212,0.0085,-0.045,0.0403,0.0175,-0.0025,0.0027,-0.0405,-0.0315,-0.0475,-0.0728,-0.0295,0.034,-0.0288,-0.0292,-0.0208,-0.0303,0.005,0.0028,-0.0405,-0.0448,-0.0422,-0.0427,-0.0107,-0.0293,-0.0085,-0.0098,-0.0515,-0.0505,-0.059,-0.0503,-0.0328,-0.03
-0.0387,-0.0265,-0.0055,-0.0062,0.0572,0.0175,0.002,-0.0042,-0.073,-0.0372,-0.0278,-0.0057,0.0453,0.0358,-0.0275,-0.024,-0.0633,-0.045,0.0403,0,-0.0012,0.0035,-0.04,-0.0302,-0.0142,-0.0433,0.0102,0.011,-0.0308,-0.032,-0.013,-0.0255,0.0122,0.0408,-0.043,-0.0475,-0.0435,-0.044,-0.0085,-0.026,-0.0052,-0.0273,-0.054,-0.0528,-0.0572,-0.0495,-0.033,-0.032
-0.0077,0.0165,0,-0.075,0.0335,0.042,-0.0043,0.0012,-0.039,-0.01,-0.0368,0,0.0375,-0.0112,-0.0263,-0.0212,-0.061,-0.066,0.067,-0.007,0.0078,0.0125,-0.032,-0.0275,-0.0065,-0.0453,0,0.0622,-0.021,-0.0262,-0.0105,-0.0203,0.003,0.0015,-0.039,-0.0448,-0.0295,-0.0345,-0.0017,-0.0137,0,-0.0135,-0.05,-0.0485,-0.0402,-0.0333,-0.0275,-0.0295
-0.0275,0.0198,0.0057,-0.042,0.0165,-0.0057,0.0008,0.0027,-0.061,-0.0397,-0.0188,0.0055,0.105,-0.0075,-0.0215,-0.0225,-0.049,-0.045,0.0702,0.055,0.0078,0.0115,-0.0308,-0.0285,-0.0117,-0.0558,0.007,0.0148,-0.0225,-0.0275,-0.0063,-0.027,-0.003,0.0312,-0.0373,-0.043,-0.0292,-0.0347,-0.014,-0.0173,-0.0085,-0.006,-0.0522,-0.0515,-0.043,-0.0353,-0.0315,-0.0308
-0.033,0.0135,0.0115,-0.0245,0,-0.0057,0.0097,0,-0.0518,-0.0602,-0.0143,-0.0425,0.0257,-0.0222,-0.0268,-0.0225,-0.0185,-0.0358,0.0403,0.032,0.002,0.0077,-0.0328,-0.0272,-0.026,0.001,-0.0133,0.058,-0.024,-0.0295,-0.017,-0.0312,-0.003,0.044,-0.0353,-0.0417,-0.0272,-0.033,-0.0077,-0.0135,0.004,-0.0158,-0.0537,-0.0543,-0.049,-0.0413,-0.0335,-0.0335
-0.0145,0.001,0.0115,-0.0245,-0.0157,-0.0782,-0.0065,0,-0.0788,0.0088,-0.0143,-0.108,0.0375,0.0275,-0.0248,-0.0198,-0.0133,-0.0165,0.0338,0.0175,0.003,0.0048,-0.0335,-0.0255,-0.0322,-0.0433,-0.0295,-0.038,-0.0245,-0.0312,-0.0243,-0.036,0.0322,0.0473,-0.0333,-0.04,-0.0235,-0.0305,-0.0088,-0.02,-0.0152,-0.0198,-0.0562,-0.0548,-0.0512,-0.0403,-0.0353,-0.0335
-0.0432,-0.007,-0.0113,-0.075,0.0335,0.0057,-0.0085,-0.0008,-0.059,-0.0357,-0.0095,-0.027,0.0297,-0.0292,-0.0275,-0.022,-0.0562,-0.045,0.0435,0.079,0,0.0052,-0.0345,-0.0322,-0.0187,-0.047,-0.0033,0.0148,-0.0278,-0.034,-0.0218,-0.038,0.0465,-0.003,-0.0353,-0.0405,-0.025,-0.0318,-0.0147,-0.012,-0.0212,-0.0115,-0.0627,-0.0608,-0.057,-0.0457,-0.036,-0.0378
-0.04,0.0062,0.0232,-0.0533,0.0055,-0.0382,-0.0063,-0.0118,-0.0445,-0.0385,-0.0143,-0.0622,0.0533,0.0318,-0.025,-0.0265,-0.0512,-0.0328,0.1065,-0.017,0.0025,0.0023,-0.0375,-0.0322,-0.0215,-0.0388,-0.048,0.011,-0.031,-0.0372,-0.0288,-0.0373,0.001,0.0297,-0.038,-0.0435,-0.0275,-0.0345,-0.0225,-0.0173,-0.0032,-0.0208,-0.067,-0.064,-0.0625,-0.0565,-0.04,-0.0393
-0.0405,0.0207,0.0352,-0.0062,0.0165,0.0295,-0.0035,-0.0063,-0.0475,-0.0462,-0.0495,0.0113,0,0.0358,-0.0288,-0.0275,-0.0315,-0.039,0.037,-0.007,-0.0042,-0.0003,-0.038,-0.0335,-0.0107,-0.0653,0.0317,0.0377,-0.0345,-0.0402,-0.0318,-0.039,-0.011,0.0603,-0.0408,-0.0445,-0.031,-0.0358,-0.0248,-0.0152,-0.0155,-0.0235,-0.0707,-0.067,-0.066,-0.057,-0.0442,-0.0428
-0.0127,0.0295,0.0172,-0.0185,0.022,0.042,-0.0072,-0.0023,-0.0548,-0.0372,-0.0048,-0.0375,0.0297,0,-0.0348,-0.0242,-0.039,-0.0068,0.0338,0.021,-0.0067,0.0005,-0.0435,-0.0332,-0.021,-0.0713,0,-0.0312,-0.0365,-0.041,-0.0348,-0.0453,-0.01,-0.0157,-0.0417,-0.0452,-0.0305,-0.035,-0.0202,-0.026,-0.012,-0.0248,-0.0715,-0.0685,-0.067,-0.0585,-0.0452,-0.0445
-0.0372,0.0198,-0.0325,-0.042,0.0165,0,-0.0038,-0.003,-0.072,0,-0.0368,-0.0165,0.0657,-0.0365,-0.0238,-0.0192,-0.0365,-0.042,0.0568,0.0282,0.0032,0.0048,-0.0323,-0.03,-0.048,-0.0617,-0.0033,-0.021,-0.0278,-0.0355,-0.0258,-0.0408,0.0332,0.044,-0.0343,-0.0408,-0.0155,-0.0242,-0.0035,-0.0118,-0.0107,-0.0183,-0.0657,-0.0628,-0.0447,-0.044,-0.0382,-0.0395
-0.0345,-0.0168,-0.053,-0.0533,0.0335,0.0115,-0.011,-0.0035,-0.0485,-0.01,-0.0188,-0.0217,-0.0035,0.0195,-0.0213,-0.0265,-0.0562,-0.057,0.05,0.014,0.0045,0.005,-0.032,-0.0295,-0.0377,-0.0425,-0.0033,0.0185,-0.027,-0.036,-0.0253,-0.0415,0.0205,0.0375,-0.0318,-0.0397,-0.015,-0.0235,-0.0077,-0.0133,-0.0097,-0.0103,-0.0635,-0.0617,-0.05,-0.0465,-0.0342,-0.037
-0.0252,-0.005,-0.0377,-0.0697,0.0278,-0.0113,-0.0063,-0.0042,-0.0412,0.0238,0.0195,-0.0217,0.0145,-0.0075,-0.0255,-0.0195,-0.0795,-0.063,0.0273,0.0432,0.0023,0.0055,-0.0358,-0.032,-0.0282,-0.0137,0.007,0.034,-0.0278,-0.0365,-0.0305,-0.038,0.0228,0.0375,-0.0323,-0.039,-0.0162,-0.0252,-0.0067,-0.0198,-0.0127,-0.0155,-0.062,-0.06,-0.051,-0.05,-0.0375,-0.036
-0.0212,-0.0312,0.0352,-0.0305,0.0453,0.0548,-0.0175,-0.0038,-0.065,-0.0182,-0.0323,0.0408,0.0827,0.004,-0.024,-0.0165,-0.0862,-0.0718,0.0738,-0.007,0.0032,0.007,-0.0382,-0.03,-0.0355,-0.027,0.0035,-0.007,-0.0288,-0.037,-0.0335,-0.0465,0.0185,0.052,-0.032,-0.0393,-0.019,-0.026,-0.0155,-0.023,-0.0035,-0.009,-0.0612,-0.059,-0.0553,-0.0537,-0.0365,-0.0385
-0.0307,0,-0.0273,-0.0125,0.0165,0.0115,-0.011,-0.0093,-0.0527,-0.0127,-0.0368,-0.0165,0.096,0.004,-0.024,-0.025,-0.075,-0.06,0.0533,0.032,0.003,0.0025,-0.0347,-0.0312,0.0043,-0.0193,-0.023,0.0038,-0.0303,-0.0375,-0.0248,-0.0395,0.007,0.044,-0.0323,-0.0393,-0.0205,-0.0295,-0.0055,-0.0163,-0.0152,-0.0185,-0.0617,-0.061,-0.0648,-0.06,-0.038,-0.0403
-0.0302,-0.0275,0.0232,-0.0185,0.0453,0.0115,-0.01,-0.0065,-0.064,0,-0.0368,-0.027,0.0145,0.0118,-0.0288,-0.0255,-0.029,-0.0803,0.067,0.021,-0.0017,0.0012,-0.0388,-0.0332,-0.0277,-0.0558,-0.0133,0,-0.0325,-0.0397,-0.032,-0.046,0.0133,0.052,-0.0348,-0.041,-0.0272,-0.031,-0.0172,-0.0205,-0.0177,-0.0155,-0.063,-0.0613,-0.068,-0.0645,-0.0425,-0.0415
-0.041,0.036,-0.0113,0.0063,0.0513,-0.0278,-0.026,-0.0125,-0.061,-0.0197,-0.0095,-0.011,0.022,-0.0112,-0.0303,-0.0272,-0.029,-0.0133,0.0403,0.032,-0.005,-0.0017,-0.0408,-0.0387,-0.013,-0.0703,0.0502,0.0498,-0.036,-0.0422,-0.036,-0.0403,0.0122,-0.0042,-0.0358,-0.0415,-0.0307,-0.0347,-0.01,-0.0183,-0.0085,-0.0243,-0.0648,-0.0623,-0.0762,-0.067,-0.045,-0.0425
-0.029,0.0295,0.0172,-0.0305,0.0335,0.0483,-0.0223,-0.009,-0.0527,-0.0345,0.0145,-0.0322,0.022,0.0275,-0.032,-0.0235,-0.008,-0.066,0.0243,0.0068,-0.0067,-0.0023,-0.0438,-0.0367,-0.0465,-0.0408,-0.0295,0.0418,-0.0395,-0.045,-0.0423,-0.053,0.003,0.0253,-0.039,-0.0437,-0.034,-0.0372,-0.012,-0.0267,-0.0225,-0.0235,-0.0667,-0.062,-0.0842,-0.0738,-0.0473,-0.0455
-0.0457,-0.002,0.0232,-0.0245,0.0335,-0.0435,-0.01,-0.005,-0.0527,-0.0225,-0.0048,0.017,0.022,0.0195,-0.0245,-0.0232,-0.034,-0.01,0.0403,0.021,-0.0022,0.0008,-0.0412,-0.0337,-0.0622,-0.0583,0.0657,0.03,-0.0323,-0.0408,-0.0315,-0.0468,0.003,0.0488,-0.0335,-0.0397,-0.0215,-0.0288,-0.0097,-0.0303,-0.0085,-0.0225,-0.0595,-0.0573,-0.0562,-0.0565,-0.0408,-0.041
-0.034,0.0155,-0.0273,-0.042,0.0107,0.0295,-0.0075,0.0042,-0.061,-0.0197,0.0047,0.0055,0.0297,-0.0185,-0.0275,-0.0175,-0.0053,-0.057,0.0702,0.0068,0.0023,0.0052,-0.039,-0.031,-0.0395,-0.06,0.0172,0.034,-0.0288,-0.037,-0.0268,-0.041,0.0377,0.057,-0.0318,-0.038,-0.0168,-0.0248,-0.0132,-0.0232,-0.0132,-0.0088,-0.0547,-0.0533,-0.051,-0.0518,-0.0375,-0.0363
0.0108,0.0103,-0.0165,-0.0245,0.0335,0.0295,-0.018,-0.0078,-0.06,-0.021,-0.0863,-0.027,0.022,0.0443,-0.0195,-0.0245,-0.0365,-0.0198,0.06,0.0432,0.0058,0.0045,-0.0345,-0.033,-0.048,-0.0678,0.0172,-0.0412,-0.0278,-0.037,-0.0355,-0.0438,-0.007,0.0058,-0.0297,-0.0377,-0.0185,-0.0255,-0.012,-0.0175,-0.008,-0.0213,-0.0525,-0.0515,-0.0562,-0.0543,-0.0345,-0.0373
-0.0312,0.0187,0.0057,-0.0185,0.0635,-0.0057,-0.011,-0.0065,-0.0412,-0.0397,-0.0143,-0.0525,-0.0278,0.0078,-0.0228,-0.017,-0.0265,-0.06,0.1065,0.0068,0.0043,0.0055,-0.0343,-0.0352,0.009,-0.0505,0.007,-0.0035,-0.0303,-0.038,-0.0295,-0.0433,0.0195,0.013,-0.0315,-0.0383,-0.0202,-0.027,-0.0103,-0.0183,-0.0012,-0.0128,-0.0537,-0.0518,-0.0547,-0.0575,-0.0375,-0.0373
-0.041,0.0092,0,-0.0305,0.0165,-0.0278,-0.0048,-0.0053,-0.075,-0.0225,0.04,-0.0575,-0.0507,-0.033,-0.0193,-0.021,-0.0862,-0.0857,0.0305,0.0175,0.0025,0.0032,-0.0377,-0.0355,-0.0332,-0.0388,-0.048,-0.0412,-0.0305,-0.0387,-0.0308,-0.0408,0.028,0.0345,-0.0318,-0.039,-0.022,-0.0282,-0.0062,-0.0193,-0.0117,-0.0193,-0.0532,-0.052,-0.0605,-0.0593,-0.0397,-0.0388
-0.0257,0.0198,0.0232,-0.0062,-0.0053,-0.0057,-0.0148,-0.0078,-0.069,-0.0252,-0.0278,-0.0057,0.022,-0.0222,-0.0265,-0.0225,-0.0025,0.007,0.0435,0.055,0.0013,0.002,-0.0435,-0.036,-0.026,-0.0795,-0.051,0.034,-0.033,-0.0408,-0.0303,-0.0415,0.0455,0.0345,-0.0333,-0.0412,-0.0262,-0.0322,-0.0157,-0.016,-0.0117,-0.0253,-0.0553,-0.0525,-0.074,-0.0643,-0.0417,-0.0423
-0.04,-0.004,-0.0165,-0.0125,0.0165,-0.0278,-0.0038,-0.004,-0.0498,-0.0197,-0.041,-0.0057,0.0412,0.04,-0.0238,-0.0207,-0.0212,-0.0688,0.0403,-0.0137,-0.0032,0.0008,-0.045,-0.0372,-0.0112,-0.0753,-0.01,-0.0035,-0.0365,-0.0433,-0.0283,-0.0458,0.0205,0.0205,-0.0358,-0.0423,-0.0317,-0.035,-0.01,-0.0325,-0.0195,-0.0205,-0.057,-0.0555,-0.0728,-0.0668,-0.043,-0.043
-0.0275,-0.003,-0.0113,-0.0957,0.0055,0,-0.011,-0.0078,-0.06,-0.032,-0.0048,-0.0057,0.0183,0.004,-0.0312,-0.0235,-0.0315,-0.063,0.009,0.021,-0.0048,-0.001,-0.0462,-0.0405,-0.0187,-0.091,-0.0133,-0.0312,-0.0385,-0.046,-0.0303,-0.0428,0.006,0.036,-0.0385,-0.045,-0.0335,-0.0372,-0.0212,-0.0265,-0.0122,-0.0185,-0.0593,-0.0575,-0.0837,-0.0738,-0.0462,-0.0453
-0.034,-0.014,0.0477,0.0063,0.0165,0.0358,-0.0152,-0.0045,-0.069,-0.0127,-0.0495,-0.0165,0.0453,-0.0185,-0.0295,-0.0263,-0.008,-0.0718,0.012,-0.0137,-0.005,-0.0035,-0.0473,-0.0402,-0.0422,-0.0513,0.0102,-0.038,-0.0395,-0.0452,-0.0305,-0.0408,-0.0273,0.0028,-0.0393,-0.0463,-0.0302,-0.0347,-0.0217,-0.0208,-0.0032,-0.0215,-0.0595,-0.056,-0.0735,-0.0655,-0.0448,-0.0453
-0.035,0.036,-0.0055,0.0128,0.0697,0.0548,-0.016,-0.0033,-0.0527,-0.0072,-0.0143,-0.0425,0.0743,0.0118,-0.028,-0.0163,-0.0185,-0.0803,0.0568,0.0395,0.0005,0.004,-0.0425,-0.0377,-0.0267,-0.0777,-0.0295,0.0072,-0.0303,-0.0385,-0.0298,-0.0375,0.0162,-0.003,-0.0343,-0.042,-0.0185,-0.0267,-0.0082,-0.0245,-0.0027,-0.0217,-0.0515,-0.05,-0.0475,-0.0522,-0.0355,-0.0398
-0.0297,0.0083,-0.0055,-0.075,0.0453,0,-0.008,-0.0018,-0.061,-0.0357,-0.0188,-0.0375,0.0072,-0.0222,-0.0205,-0.017,-0.0817,-0.045,0.0305,0.014,0.0003,0.0042,-0.0395,-0.0325,-0.017,-0.0653,-0.0165,-0.0347,-0.0303,-0.0387,-0.0245,-0.0338,0.0488,0.0312,-0.033,-0.0415,-0.0185,-0.0265,-0.0215,-0.0175,-0.0157,-0.0063,-0.0505,-0.0495,-0.0515,-0.0505,-0.0377,-0.0368
-0.0452,-0.003,-0.0113,0.0325,0.0055,0.0235,-0.0085,-0.0085,-0.061,-0.0072,0.0145,-0.0217,-0.0245,-0.0257,-0.019,-0.0177,-0.0702,-0.039,0.037,0.0032,0.002,0.0027,-0.04,-0.034,-0.0465,-0.086,-0.0263,0.03,-0.0308,-0.04,-0.0195,-0.031,0.0185,0.0103,-0.0335,-0.042,-0.0208,-0.0272,-0.0135,-0.0293,-0.0103,-0.0223,-0.0513,-0.0513,-0.0607,-0.0575,-0.0375,-0.0388
-0.0122,0.0198,0.0172,0,0.022,0.0295,-0.0133,-0.006,-0.0568,0.003,0.0295,-0.0475,0.0257,-0.0075,-0.0213,-0.0198,-0.0633,-0.023,0.088,0.0068,0.0058,0.0032,-0.0397,-0.035,-0.0427,-0.0728,-0.048,0.0418,-0.0318,-0.039,-0.022,-0.0413,-0.003,-0.0127,-0.0343,-0.0425,-0.0187,-0.0278,-0.0125,-0.026,-0.0142,-0.0175,-0.0515,-0.0518,-0.062,-0.0565,-0.037,-0.0393
-0.0168,0.0092,-0.022,-0.0642,0.0393,0.0295,-0.011,-0.0065,-0.058,-0.0397,-0.041,-0.0165,-0.021,0.0485,-0.022,-0.0225,-0.0415,-0.01,0.0918,0.0358,0.0013,0,-0.043,-0.0375,-0.025,-0.0617,0.0352,-0.051,-0.0328,-0.041,-0.0228,-0.0403,0.0388,0.0088,-0.0363,-0.0435,-0.0242,-0.0285,-0.0162,-0.0225,-0.013,-0.0238,-0.0537,-0.053,-0.0633,-0.064,-0.0395,-0.0425
-0.0568,0.0053,-0.0055,-0.0533,0.0107,-0.033,-0.0113,-0.009,-0.059,-0.0027,-0.0323,-0.0217,0.0533,0.04,-0.0232,-0.0215,-0.034,-0.0328,0.0635,-0.052,-0.0027,-0.0003,-0.044,-0.039,-0.0502,-0.0478,-0.0133,0.0418,-0.0365,-0.0433,-0.0333,-0.0475,-0.0282,0.0238,-0.039,-0.0455,-0.0242,-0.0307,-0.019,-0.029,-0.0192,-0.0145,-0.0583,-0.0563,-0.073,-0.069,-0.041,-0.042
-0.028,0.0042,0.0172,0.0258,0.022,0.0057,-0.0198,-0.0083,-0.058,-0.0292,0.0145,-0.011,0.0257,-0.0037,-0.0245,-0.0195,-0.0633,-0.01,-0.006,-0.0035,-0.0057,-0.0025,-0.0473,-0.0415,-0.0522,-0.0795,-0.0328,0.0222,-0.0383,-0.0455,-0.035,-0.043,0.0388,0.0145,-0.04,-0.0475,-0.0255,-0.0307,-0.033,-0.0433,-0.0103,-0.0198,-0.0638,-0.0615,-0.0793,-0.0708,-0.0437,-0.0435
-0.0172,0.0135,0,-0.0245,0.0393,0.0057,-0.023,-0.0098,-0.0527,-0.0332,-0.0232,-0.0902,0.0453,-0.033,-0.0275,-0.0267,-0.0585,-0.045,0.0738,0.051,-0.0075,-0.0053,-0.0483,-0.041,-0.0345,-0.102,0.039,0.034,-0.0388,-0.0457,-0.0395,-0.0423,0.0332,0.0175,-0.0423,-0.0492,-0.025,-0.0292,-0.016,-0.033,-0.0177,-0.0188,-0.0657,-0.064,-0.0767,-0.0678,-0.0465,-0.045
-0.0372,0.0125,0.0293,-0.0245,0.0635,0.0613,-0.0045,-0.0033,-0.0475,-0.0182,0,-0.0947,0.0375,0.04,-0.0223,-0.0168,-0.0053,-0.066,0.0338,0.014,0.001,0.0023,-0.0388,-0.036,-0.034,-0.0703,-0.0328,-0.0245,-0.0297,-0.0387,-0.0288,-0.0383,0.0257,-0.0185,-0.0355,-0.044,-0.0097,-0.0175,-0.01,-0.026,-0.0095,-0.0193,-0.061,-0.0598,-0.0545,-0.0485,-0.0372,-0.0385
-0.0377,-0.004,0.0293,-0.0245,-0.0053,0.0235,-0.0145,-0.0005,-0.0475,-0.0225,0,-0.027,0.0657,-0.0112,-0.0215,-0.0148,-0.044,-0.063,0.021,0.0628,0.0023,0.0042,-0.04,-0.0352,-0.03,-0.0728,-0.0263,0.0418,-0.0297,-0.039,-0.036,-0.0453,0.0185,-0.017,-0.0345,-0.0427,-0.0105,-0.0168,-0.018,-0.0205,-0.0092,-0.013,-0.059,-0.059,-0.0532,-0.053,-0.0375,-0.0375
-0.051,-0.0323,0,-0.0477,0.0393,0.0483,-0.0095,-0.007,-0.0403,-0.0385,-0.0323,-0.0525,0.0257,-0.033,-0.0198,-0.0175,-0.0133,-0.0775,0.0435,0.0175,0.0018,0.001,-0.0373,-0.0357,-0.0422,-0.0628,-0.0165,-0.0107,-0.0305,-0.0397,-0.031,-0.0418,-0.006,0.0408,-0.0345,-0.0435,-0.0105,-0.0185,-0.0168,-0.0293,-0.0092,-0.014,-0.0612,-0.0588,-0.0648,-0.0575,-0.0385,-0.0383
-0.0447,-0.0245,-0.0055,0,0.0393,0.0235,-0.0113,-0.008,-0.0195,-0.0265,-0.0048,-0.0525,0.0453,-0.0365,-0.0213,-0.0187,-0.0025,-0.0943,0.05,-0.007,-0.0017,0.0008,-0.0427,-0.037,-0.0332,-0.061,0.039,-0.007,-0.0305,-0.0395,-0.031,-0.0475,0.0777,0.0312,-0.034,-0.0423,-0.0097,-0.0183,-0.0192,-0.0235,-0.0248,-0.011,-0.0598,-0.0593,-0.0607,-0.0588,-0.038,-0.0368
-0.063,0.002,-0.0325,-0.0062,0.0278,0,-0.0105,-0.0105,-0.062,-0.0182,0,-0.0322,-0.0107,-0.0365,-0.0235,-0.0165,-0.0415,-0.0068,0.06,-0.0137,-0.0048,-0.0017,-0.0423,-0.036,-0.0465,-0.072,-0.01,0.0457,-0.0333,-0.0408,-0.035,-0.048,0.028,-0.003,-0.0348,-0.0423,-0.0132,-0.0192,-0.0212,-0.031,-0.0142,-0.0115,-0.0617,-0.0613,-0.0685,-0.0628,-0.0393,-0.04
-0.035,-0.008,0.0057,-0.0125,0.0572,0.0678,-0.0208,-0.007,-0.0432,-0.0372,-0.0095,-0.0375,0.0615,0.0118,-0.024,-0.0192,-0.061,-0.045,0.0273,-0.007,-0.0025,-0.0023,-0.0457,-0.037,-0.0227,-0.0685,0.0902,0.054,-0.0363,-0.0433,-0.0308,-0.0533,-0.009,0.0028,-0.0373,-0.0442,-0.0145,-0.023,-0.0162,-0.038,-0.0137,-0.0183,-0.0648,-0.0625,-0.0755,-0.0693,-0.0427,-0.0435
-0.0425,-0.008,0.0232,-0.0062,0.0335,-0.0113,-0.012,-0.0107,-0.0485,-0.0112,0,-0.0165,0.0335,0.0358,-0.025,-0.0177,-0.034,-0.0295,0.0845,-0.0103,-0.008,-0.002,-0.0455,-0.0382,-0.0497,-0.072,-0.039,0.0377,-0.0385,-0.0457,-0.0373,-0.048,0.0215,0,-0.038,-0.0457,-0.0182,-0.0263,-0.0137,-0.03,-0.0132,-0.0225,-0.0667,-0.064,-0.08,-0.072,-0.046,-0.0453
-0.0395,-0.013,0.0172,-0.0642,0.0335,0.0057,-0.0145,-0.0072,-0.075,0.0205,-0.0095,-0.011,0.0335,-0.0037,-0.0273,-0.023,-0.0728,-0.083,0.0273,-0.0137,-0.0077,-0.004,-0.0475,-0.0432,-0.0377,-0.094,0.0245,0.0185,-0.039,-0.0462,-0.0345,-0.0518,0.027,0.0685,-0.0398,-0.0457,-0.0125,-0.0235,-0.0347,-0.036,-0.0152,-0.0205,-0.0665,-0.065,-0.0755,-0.0663,-0.0465,-0.0465
-0.0345,-0.0587,0.0415,0.0535,0.0278,0.0358,-0.0083,-0.008,-0.0455,0.0103,-0.0278,-0.0165,-0.0107,0,-0.0183,-0.0115,-0.0212,-0.039,0.0635,0.0248,0.002,0.003,-0.0403,-0.0343,-0.03,-0.0685,-0.0133,-0.0107,-0.031,-0.0395,-0.029,-0.044,0.0777,0.0297,-0.034,-0.0415,-0.0067,-0.0145,-0.0088,-0.0173,-0.018,-0.0183,-0.0605,-0.0585,-0.0527,-0.0535,-0.0353,-0.0383
-0.0008,0.002,0.0115,-0.0533,0.0513,-0.0222,-0.0028,-0.013,-0.0518,-0.0385,0,-0.0217,0.0412,0.0078,-0.0193,-0.0152,-0.075,-0.0165,0.0305,0.0432,0.003,0.0035,-0.039,-0.0345,-0.02,-0.0453,0.0137,-0.007,-0.0303,-0.0385,-0.0268,-0.0413,0.0568,0.0635,-0.0325,-0.0415,-0.0085,-0.0155,-0.0045,-0.0273,-0.0092,-0.0063,-0.0565,-0.0555,-0.0542,-0.0568,-0.0357,-0.0378
-0.0317,-0.004,-0.0165,-0.0362,0.0393,0.0358,-0.0108,-0.0038,-0.073,-0.0237,-0.0048,0.0348,0.0072,0.0275,-0.0168,-0.0187,-0.034,-0.0688,0.018,0.0032,0.0015,0.0027,-0.0412,-0.0372,-0.0272,-0.0398,-0.01,0.0072,-0.031,-0.0397,-0.0305,-0.0418,0.09,0.0175,-0.034,-0.0423,-0.0122,-0.0198,-0.015,-0.0235,-0.0062,-0.0285,-0.0537,-0.0523,-0.0622,-0.0583,-0.038,-0.038
-0.0217,0.0072,0.0352,0.0128,0.022,0.0613,-0.008,-0.008,-0.0412,0.0043,-0.0745,-0.0575,0.0533,0.0528,-0.0228,-0.0175,0.0055,-0.0688,0.05,-0.0035,0,0.0008,-0.0415,-0.0372,-0.009,-0.0565,0.0317,-0.0107,-0.0312,-0.04,-0.031,-0.044,0.0133,0.0755,-0.034,-0.0415,-0.0142,-0.0215,-0.0115,-0.018,-0.0072,-0.0148,-0.053,-0.052,-0.0605,-0.0595,-0.038,-0.0383
-0.0212,-0.0168,-0.058,-0.0362,-0.0105,0.0613,-0.0125,-0.0035,-0.0328,-0.0277,-0.0188,-0.0322,0.0657,-0.0432,-0.0198,-0.0163,-0.016,-0.039,0.0773,-0.0365,0.0003,0.001,-0.0442,-0.0377,-0.0322,-0.094,0.0245,0.0222,-0.035,-0.042,-0.0308,-0.0385,0.0185,0.0253,-0.0353,-0.0433,-0.019,-0.0267,-0.0187,-0.0248,-0.0095,-0.0223,-0.053,-0.0513,-0.069,-0.0678,-0.0412,-0.0418
-0.0405,0.003,-0.022,-0.0062,0.0453,-0.0278,-0.0098,0.004,-0.067,0,-0.0705,-0.0525,0.022,0,-0.021,-0.022,0,-0.0358,0.0435,0.0667,-0.0027,-0.001,-0.0473,-0.0415,-0.046,-0.0713,0,0.0793,-0.0373,-0.0442,-0.0253,-0.034,0.001,0.0145,-0.0385,-0.0465,-0.0232,-0.029,-0.018,-0.0338,-0.0183,-0.0195,-0.0547,-0.0525,-0.077,-0.068,-0.0425,-0.0438
-0.0377,0.045,0.0115,-0.0362,0.0513,0.0235,-0.0085,-0.0063,-0.0423,-0.0437,-0.0278,-0.0475,0.0492,-0.015,-0.0193,-0.024,-0.0657,-0.0358,0.015,0.0587,-0.007,-0.0048,-0.0505,-0.0427,-0.01,-0.0695,-0.0068,0.0072,-0.0385,-0.0457,-0.026,-0.0398,-0.0282,0.0653,-0.0403,-0.0475,-0.0272,-0.031,-0.0222,-0.033,-0.0147,-0.0283,-0.0577,-0.0553,-0.0827,-0.0705,-0.044,-0.045
-0.0467,-0.008,-0.0113,0.0063,0.0572,0,-0.0183,-0.0072,-0.0205,-0.0225,-0.0188,-0.0057,0.0257,0.0443,-0.0263,-0.0212,-0.0512,-0.066,0.1065,0.075,-0.009,-0.0068,-0.054,-0.0455,-0.0377,-0.0505,0.0352,0.011,-0.0423,-0.048,-0.0275,-0.0393,0.0142,0.0043,-0.0433,-0.0497,-0.0282,-0.0332,-0.03,-0.0308,-0.0162,-0.0235,-0.062,-0.059,-0.0827,-0.0765,-0.043,-0.046
-0.0252,-0.0187,-0.0273,-0.042,0.0278,0.0358,0.0015,-0.0105,-0.0465,-0.0197,0.0047,0.0228,0.0412,0.0235,-0.0193,-0.0152,-0.0107,-0.039,0.0435,-0.03,-0.0002,0.0025,-0.0447,-0.041,-0.0157,-0.0453,-0.0328,0.0457,-0.0325,-0.0408,-0.022,-0.0363,0.0377,-0.0088,-0.0385,-0.047,-0.0142,-0.0232,-0.0183,-0.031,-0.012,-0.0093,-0.0575,-0.0553,-0.0577,-0.0537,-0.0395,-0.0405
-0.0475,-0.003,0,-0.0125,0.0393,0.0115,-0.0125,-0.0055,-0.025,-0.0015,-0.0095,-0.0575,0.0412,0.0358,-0.0195,-0.0165,-0.0537,-0.066,0.06,0.032,0.005,0.0015,-0.0473,-0.0395,-0.0152,-0.0333,0.028,0.011,-0.03,-0.0377,-0.0193,-0.0353,-0.004,0.0118,-0.0368,-0.0457,-0.0122,-0.0205,-0.0105,-0.0245,-0.013,-0.0163,-0.0555,-0.054,-0.052,-0.0518,-0.0345,-0.0368
-0.015,0.0295,0.0415,-0.0362,0.0165,-0.0382,-0.0048,-0.0005,-0.061,0.022,-0.0323,-0.0057,-0.0312,0.0275,-0.0232,-0.0192,-0.0212,-0.045,0.0305,-0.0202,0.0013,0.001,-0.0453,-0.0393,-0.0295,-0.0643,-0.0033,0.0038,-0.0295,-0.038,-0.0178,-0.042,0.0228,-0.028,-0.037,-0.0445,-0.014,-0.0205,-0.0195,-0.031,-0.0017,-0.0168,-0.055,-0.0535,-0.0542,-0.058,-0.0357,-0.0383
-0.024,0.0427,-0.0165,-0.0245,0.0393,-0.0382,-0.0128,0.0025,-0.0403,0.0073,-0.0453,-0.0322,-0.0107,-0.015,-0.0248,-0.0175,-0.0365,-0.054,0.1065,0.0395,-0.001,0.0015,-0.0425,-0.0387,-0.0245,-0.061,0.0245,0.03,-0.031,-0.0395,-0.022,-0.039,0.0322,0.057,-0.0377,-0.0457,-0.0142,-0.0215,-0.0088,-0.027,-0.0095,-0.0183,-0.055,-0.054,-0.0568,-0.0573,-0.0355,-0.0358
-0.015,0.0155,-0.0377,-0.042,0.0278,0,-0.004,0.0017,-0.0445,-0.0027,-0.0537,-0.011,-0.0345,0.0703,-0.019,-0.02,-0.0107,-0.0718,0.0738,0.014,-0.0002,0.001,-0.0457,-0.0393,-0.0025,-0.0305,-0.01,0.0148,-0.0325,-0.0397,-0.0185,-0.034,0.0215,0.0028,-0.0385,-0.046,-0.016,-0.0242,-0.018,-0.0308,-0.0132,-0.0195,-0.0585,-0.0558,-0.0633,-0.0595,-0.0377,-0.0368
-0.028,-0.012,0.0352,-0.0185,0.0825,-0.0113,-0.0083,-0.007,-0.061,0.0298,-0.0232,0.0228,0.022,0.04,-0.022,-0.0232,-0.0212,-0.054,0.0403,0.021,-0.0032,-0.0017,-0.0477,-0.0395,-0.0157,-0.077,0.0245,0.0622,-0.0345,-0.042,-0.0193,-0.0398,0.04,0.0253,-0.0408,-0.0488,-0.0197,-0.0272,-0.0275,-0.0375,-0.0125,-0.0168,-0.06,-0.0577,-0.0695,-0.0658,-0.0422,-0.041
-0.033,0.003,-0.0165,0.0128,0.0165,0.0057,-0.0063,-0.004,-0.0445,-0.0357,0.0245,-0.0475,-0.0278,0.0155,-0.027,-0.0215,-0.075,-0.0775,0.0635,-0.017,-0.007,-0.0023,-0.0495,-0.0435,-0.0117,-0.0353,0.0137,0.0835,-0.037,-0.0435,-0.0248,-0.0408,0.0332,0.0345,-0.0428,-0.0503,-0.0242,-0.0285,-0.0177,-0.03,-0.0175,-0.0235,-0.0638,-0.0613,-0.075,-0.0665,-0.044,-0.0453
-0.0362,0.0145,-0.0113,-0.0125,0.0825,0.0057,-0.0183,-0.008,-0.036,0.0073,-0.041,0.0113,0.0257,0.0318,-0.0288,-0.019,-0.0237,-0.0328,0.0403,0.021,-0.0097,-0.0053,-0.052,-0.0442,-0.0267,-0.0728,-0.01,0.034,-0.0403,-0.045,-0.0303,-0.0405,0.005,0.0088,-0.0455,-0.0525,-0.0275,-0.0312,-0.0227,-0.0338,-0.0165,-0.0223,-0.0663,-0.0635,-0.08,-0.073,-0.046,-0.0455
-0.0345,0.0483,0,-0.0125,0.0572,0.0483,-0.0085,-0.0083,-0.065,-0.01,-0.0143,-0.0475,0.0375,0.0155,-0.0278,-0.0235,-0.0237,-0.01,0.037,0.0708,-0.0067,-0.0043,-0.0515,-0.0445,-0.0387,-0.061,0.0102,0.0148,-0.037,-0.0437,-0.0263,-0.0395,0.028,0.0103,-0.0442,-0.0525,-0.0197,-0.026,-0.026,-0.0293,-0.0092,-0.0328,-0.0655,-0.0615,-0.0652,-0.0585,-0.044,-0.0448
-0.0302,0.0135,0.067,-0.0245,0.0335,-0.0057,-0.001,0.005,-0.0568,-0.0237,-0.0537,-0.027,0.0257,0.0318,-0.0195,-0.0212,-0.0237,-0.06,0.0635,0.0395,0.0013,0.0008,-0.0497,-0.0397,-0.0245,-0.0398,0.062,-0.028,-0.0305,-0.0382,-0.0163,-0.0398,-0.0137,0.0553,-0.041,-0.0482,-0.0122,-0.0198,-0.0142,-0.0202,-0.0105,-0.0175,-0.0593,-0.0573,-0.0503,-0.0488,-0.0372,-0.0378
-0.0217,0.024,-0.022,-0.0185,0.0513,-0.017,-0.0068,-0.0013,-0.0557,-0.0112,0.0347,-0.011,0.0743,0.0528,-0.0232,-0.0232,-0.0512,-0.042,0.0702,0.0395,0.0003,0.0015,-0.0457,-0.0397,-0.0107,-0.0835,-0.0198,0.0498,-0.0295,-0.038,-0.0198,-0.0368,0.005,0.0283,-0.04,-0.0482,-0.013,-0.0205,-0.0172,-0.022,-0.0172,-0.0093,-0.059,-0.0563,-0.048,-0.0505,-0.0342,-0.0368
-0.0088,-0.0265,0.0605,-0.042,0.0393,0.0115,-0.0088,-0.0053,-0.0818,-0.0425,0.0195,0.0113,0.1005,0.0658,-0.025,-0.0215,-0.0315,-0.0995,0.0305,-0.0365,0,-0.0008,-0.0477,-0.0402,-0.0322,-0.0738,-0.0295,0.0038,-0.0303,-0.0393,-0.0215,-0.0383,0.0237,0.0268,-0.0405,-0.0488,-0.0157,-0.022,-0.0155,-0.028,-0.0147,-0.0083,-0.06,-0.0577,-0.0535,-0.054,-0.035,-0.037
-0.029,0.0053,0.0477,-0.0642,0,0,-0.0048,-0.005,-0.024,-0.0057,-0.0143,-0.0165,0.022,0,-0.021,-0.0163,0,-0.057,0.0403,0.0032,-0.0015,-0.0003,-0.0483,-0.0405,-0.029,-0.0353,-0.054,0.0498,-0.0308,-0.039,-0.0245,-0.0318,0.0345,0.0297,-0.042,-0.0495,-0.0132,-0.023,-0.0118,-0.0243,-0.0122,-0.0043,-0.0598,-0.058,-0.0585,-0.054,-0.0365,-0.0383
-0.0317,0.0053,0.0172,-0.0362,0.089,0.0358,-0.0057,-0.007,-0.0527,-0.0252,-0.0323,-0.0525,0.0615,0.0275,-0.0238,-0.0187,-0.061,-0.054,0.0435,-0.017,0,-0.002,-0.0492,-0.0425,-0.0387,-0.0278,-0.057,0.0222,-0.0333,-0.0415,-0.0165,-0.0333,0.03,0,-0.0423,-0.051,-0.018,-0.026,-0.0183,-0.025,-0.0097,-0.0048,-0.062,-0.0603,-0.0642,-0.0633,-0.0415,-0.038
-0.0267,-0.0275,0.0293,-0.0125,0.0453,-0.017,-0.0048,-0.01,-0.0527,-0.059,-0.0048,-0.0165,0.0145,0.0155,-0.0293,-0.0223,-0.016,-0.057,0.0305,0.051,-0.0055,-0.0032,-0.0527,-0.0447,-0.0142,-0.0442,-0.0165,0.054,-0.0365,-0.0422,-0.024,-0.0355,0.0365,-0.0015,-0.0457,-0.0532,-0.0225,-0.028,-0.029,-0.026,-0.0125,-0.0232,-0.0652,-0.062,-0.075,-0.0648,-0.0402,-0.0425
-0.049,0.0198,-0.022,0.0063,0.0513,-0.017,-0.007,-0.006,-0.039,-0.021,0,-0.0165,0.07,0.0155,-0.0283,-0.023,-0.0265,-0.054,0.0338,0.055,-0.0075,-0.007,-0.0535,-0.0462,-0.0322,-0.0398,-0.023,-0.0347,-0.039,-0.045,-0.0265,-0.038,0.0103,0.013,-0.048,-0.0547,-0.0265,-0.0307,-0.0255,-0.033,-0.0183,-0.0195,-0.0673,-0.0648,-0.077,-0.0703,-0.0445,-0.0443
-0.0432,-0.015,0.0057,0.0063,0.0165,-0.0278,-0.0148,-0.0088,-0.07,-0.0015,-0.0323,-0.0217,0.0145,0.0275,-0.03,-0.0297,-0.0772,-0.01,0.0773,0.0032,-0.0107,-0.0093,-0.0557,-0.048,-0.071,-0.066,-0.0263,-0.0107,-0.0393,-0.0455,-0.0303,-0.0435,0.006,-0.0042,-0.0495,-0.0568,-0.0275,-0.0305,-0.0225,-0.0403,-0.0172,-0.0315,-0.0703,-0.0657,-0.0755,-0.0675,-0.0448,-0.0463
-0.0452,-0.009,0.0352,-0.0305,0.0278,-0.0113,-0.0043,0.001,-0.039,-0.0305,0.0245,-0.027,0.0492,0.0078,-0.0248,-0.0223,-0.0728,-0.042,0.0435,0.0395,-0.0015,-0.0023,-0.049,-0.044,-0.0152,-0.077,-0.063,0.0377,-0.0333,-0.0397,-0.0215,-0.0395,-0.006,-0.0015,-0.045,-0.0537,-0.014,-0.0195,-0.012,-0.03,-0.0052,-0.013,-0.0633,-0.0613,-0.0485,-0.0528,-0.0382,-0.0425
-0.0052,-0.035,0.0115,-0.0125,0.0107,0.0678,-0.0137,-0.006,-0.0475,-0.045,-0.0453,-0.0425,0.0145,-0.04,-0.0245,-0.0205,-0.044,-0.057,0.0305,0.0282,-0.0015,0.0005,-0.0495,-0.0437,-0.0277,-0.046,0.0245,0.0038,-0.0308,-0.038,-0.0185,-0.0343,0.0142,0.0408,-0.0448,-0.053,-0.015,-0.0223,-0.0135,-0.0238,-0.0072,-0.0268,-0.0625,-0.0603,-0.0522,-0.051,-0.038,-0.0395
-0.0235,0.0145,0.0232,-0.059,0.0393,-0.0222,-0.0085,0.0008,-0.075,0.0118,-0.0537,0.0055,0.0183,0.0118,-0.0232,-0.02,-0.0885,-0.06,0.0845,0.0175,-0.0027,-0.0015,-0.048,-0.0457,-0.034,-0.067,0.0035,-0.0035,-0.0323,-0.039,-0.0193,-0.0293,0.0175,0.0408,-0.045,-0.0528,-0.0152,-0.0232,-0.0172,-0.0308,-0.0145,-0.0205,-0.0638,-0.061,-0.0597,-0.0558,-0.037,-0.041
-0.0263,0.0155,0.0057,-0.1007,0.0393,0.0358,-0.0043,-0.004,-0.0347,-0.0527,-0.0323,-0.0375,0.0743,0.0078,-0.0213,-0.022,-0.0953,-0.0068,0.0273,-0.046,-0.0015,-0.0017,-0.0512,-0.0447,-0.025,-0.047,-0.0358,-0.028,-0.033,-0.0402,-0.0205,-0.0283,-0.0158,0.0223,-0.045,-0.0528,-0.0182,-0.0235,-0.011,-0.0347,-0.008,-0.0217,-0.064,-0.0615,-0.059,-0.0558,-0.0402,-0.0413
-0.034,0.0187,0.0293,-0.0533,0.0635,0.0678,-0.0152,-0.0088,-0.0527,-0.0072,-0.0495,-0.011,-0.0107,-0.04,-0.0273,-0.0267,-0.0512,-0.0803,0.009,0.0032,-0.0032,-0.0048,-0.053,-0.0435,-0.0447,-0.054,-0.01,-0.021,-0.034,-0.0415,-0.0185,-0.0338,-0.006,-0.0015,-0.046,-0.0535,-0.0187,-0.028,-0.0235,-0.0303,-0.0152,-0.0255,-0.0648,-0.064,-0.067,-0.0578,-0.04,-0.0413
-0.024,0.0155,-0.0055,-0.0245,0.0513,0.0057,-0.0085,-0.012,-0.0423,-0.0577,-0.0232,-0.0475,0.0615,0.057,-0.0312,-0.0227,-0.0315,-0.045,0.0533,0.0282,-0.0077,-0.0045,-0.0555,-0.0455,-0.0112,-0.0628,0.0542,-0.0107,-0.0368,-0.0437,-0.0203,-0.0308,0.0322,0.0455,-0.048,-0.0565,-0.024,-0.0285,-0.0227,-0.0383,-0.023,-0.0225,-0.0675,-0.0657,-0.0715,-0.0635,-0.043,-0.045
-0.0372,-0.0237,0.0415,-0.0305,-0.036,0.0057,-0.0178,-0.0105,-0.1052,-0.0292,-0.0323,0.047,0.0412,0.0235,-0.0293,-0.0217,-0.0053,-0.045,0.0338,0.021,-0.0088,-0.0065,-0.053,-0.0505,-0.03,-0.0713,0,-0.0142,-0.0405,-0.0457,-0.0298,-0.04,0.0103,0.0015,-0.0508,-0.057,-0.0262,-0.032,-0.0255,-0.0353,-0.0157,-0.0338,-0.0705,-0.0678,-0.0747,-0.068,-0.0445,-0.0445
-0.052,0.0415,0.0115,0.0128,0,-0.0113,-0.0168,-0.0072,-0.0338,-0.0397,-0.0663,0.0228,0.022,0.0118,-0.031,-0.0263,0,-0.0857,0.0305,0.0708,-0.009,-0.0093,-0.0577,-0.0488,-0.035,-0.066,-0.0198,0,-0.0423,-0.0475,-0.0263,-0.0363,-0.001,0.0253,-0.0528,-0.0587,-0.027,-0.0307,-0.029,-0.03,-0.0242,-0.0308,-0.0735,-0.0693,-0.0797,-0.0697,-0.0495,-0.0458
-0.0335,0.023,0.054,-0.0305,0.0572,-0.0222,-0.0135,-0.0068,-0.061,-0.0425,-0.0232,-0.0165,-0.0072,-0.015,-0.0278,-0.0212,-0.0315,-0.054,0.0568,0.0473,-0.0042,-0.0023,-0.0497,-0.0445,-0.0405,-0.0635,0.0102,-0.0107,-0.0325,-0.0402,-0.0218,-0.0355,0.029,0.0145,-0.0473,-0.055,-0.0142,-0.0212,-0.022,-0.0345,-0.012,-0.0253,-0.0663,-0.0625,-0.0522,-0.049,-0.039,-0.0408
-0.0217,-0.007,-0.022,-0.1107,0.0393,0.0295,-0.0053,-0.0063,-0.038,-0.0357,0,-0.0575,0.0335,-0.0222,-0.024,-0.022,-0.061,-0.039,0.0435,-0.0103,-0.0015,-0.001,-0.051,-0.042,-0.029,-0.0653,0.0035,-0.0142,-0.0315,-0.039,-0.0268,-0.0355,0.002,0.052,-0.0457,-0.0543,-0.0142,-0.0208,-0.0183,-0.0345,-0.0027,-0.0258,-0.0623,-0.0605,-0.05,-0.0525,-0.037,-0.0398
-0.0592,-0.0168,0,-0.0245,0.0635,0.0057,-0.012,-0.0063,-0.0855,-0.0397,0.0095,0,0.0297,0.0485,-0.0217,-0.0232,-0.0185,-0.063,0.0305,0.0473,-0.0008,-0.0017,-0.048,-0.043,-0.035,-0.0442,0.062,0.0072,-0.0318,-0.0387,-0.018,-0.0355,0.003,-0.0307,-0.044,-0.054,-0.017,-0.0235,-0.0278,-0.0325,-0.0112,-0.0178,-0.063,-0.0603,-0.0568,-0.0543,-0.037,-0.0405
-0.048,-0.012,-0.0273,-0.0125,0,0.042,-0.0095,-0.0068,-0.0568,-0.0112,0.0295,0,0.0335,0.0838,-0.0217,-0.0227,-0.0465,-0.0198,0.0338,-0.0103,-0.002,-0.0008,-0.0515,-0.045,-0.0545,-0.0495,0.0035,0.0072,-0.032,-0.039,-0.023,-0.0428,-0.0235,0.0175,-0.0455,-0.0535,-0.0162,-0.0242,-0.025,-0.0275,-0.0162,-0.0208,-0.0638,-0.061,-0.0587,-0.0543,-0.0377,-0.0403
-0.0387,0.0315,0.0477,-0.0533,0.0572,0.042,-0.0143,-0.008,-0.0455,-0.0627,0.0145,0.0408,0.022,-0.0075,-0.0248,-0.0212,-0.034,-0.0857,0.037,0.021,-0.0025,-0.003,-0.05,-0.0432,-0.0157,-0.0812,-0.0263,0.054,-0.0337,-0.0402,-0.025,-0.0398,-0.0137,0.0253,-0.046,-0.0553,-0.021,-0.0257,-0.012,-0.031,-0.017,-0.0152,-0.0663,-0.0625,-0.0622,-0.058,-0.0412,-0.0425
-0.035,-0.005,-0.022,-0.0477,0.0697,0.0295,-0.0173,-0.0115,-0.07,-0.049,-0.041,0.0113,0.0492,0.004,-0.0273,-0.023,-0.061,-0.0888,0.015,0.021,-0.0062,-0.0035,-0.0533,-0.0447,-0.0372,-0.0753,-0.0068,0.0377,-0.0365,-0.0422,-0.0243,-0.0378,0.029,0.033,-0.0482,-0.057,-0.025,-0.03,-0.024,-0.0308,-0.0165,-0.0263,-0.0675,-0.065,-0.0717,-0.066,-0.0422,-0.0445
-0.0322,0.0272,0.0605,-0.059,0.076,0.0358,-0.0188,-0.0045,-0.0445,-0.0385,-0.0368,-0.0425,0.0072,0.004,-0.0285,-0.0227,-0.0795,-0.0068,0.0738,0.0395,-0.0075,-0.005,-0.0548,-0.0467,-0.0227,-0.0987,-0.0133,0.0038,-0.0388,-0.0445,-0.0273,-0.045,0.0312,0.0028,-0.0505,-0.0593,-0.0272,-0.0315,-0.0387,-0.03,-0.0177,-0.0245,-0.0705,-0.0673,-0.0787,-0.07,-0.0465,-0.0448
-0.0117,0.0165,0.0352,0,0.0278,0.0548,-0.0163,-0.0053,-0.0412,-0.0652,-0.0188,0.0113,0.0145,0.0235,-0.031,-0.0285,-0.0817,-0.057,-0.006,-0.007,-0.0112,-0.009,-0.0595,-0.0492,-0.0345,-0.0695,0.0137,0.0038,-0.0417,-0.0462,-0.0305,-0.0435,0.0648,-0.0015,-0.0533,-0.06,-0.0285,-0.0332,-0.0352,-0.0415,-0.0165,-0.0297,-0.0722,-0.0688,-0.0765,-0.073,-0.0477,-0.0493
0,0,0.0293,-0.0642,0.0278,0.0057,-0.0163,-0.007,-0.1015,-0.0437,-0.0453,-0.0475,0.1143,0.0443,-0.0275,-0.023,-0.0107,-0.042,0,0.0068,-0.0055,-0.003,-0.052,-0.0457,-0.0377,-0.0353,0.0035,0.011,-0.0345,-0.0417,-0.0293,-0.0368,0.0215,0.0503,-0.0488,-0.0572,-0.0177,-0.0232,-0.0237,-0.03,-0.018,-0.0223,-0.0682,-0.0648,-0.0572,-0.0543,-0.0415,-0.0435
-0.0457,0.0062,-0.0325,-0.0062,0.0335,0.0175,-0.0078,-0.0013,-0.0455,-0.0252,-0.0495,-0.0322,-0.0245,0.0658,-0.0245,-0.0198,-0.0633,-0.054,0.088,0.1045,0.0013,0.0008,-0.0495,-0.0432,-0.067,-0.0925,0.028,0.011,-0.0312,-0.0382,-0.0253,-0.0395,-0.0148,0.0238,-0.0463,-0.0555,-0.0147,-0.022,-0.0198,-0.0383,-0.0175,-0.0215,-0.0652,-0.0615,-0.0557,-0.0488,-0.0377,-0.0388
-0.0367,-0.014,0.0172,-0.0062,0.0107,0.0358,-0.0075,0,-0.065,-0.032,-0.0095,-0.0165,0.0072,-0.0185,-0.0213,-0.0177,-0.0585,-0.0358,0.0533,0.021,0.0003,0.002,-0.0495,-0.0417,-0.0182,-0.06,-0.057,-0.0245,-0.0303,-0.0385,-0.0183,-0.0383,-0.009,0.0223,-0.0453,-0.0545,-0.0165,-0.0225,-0.027,-0.0217,-0.0127,-0.0215,-0.062,-0.06,-0.057,-0.052,-0.0387,-0.0415
-0.0195,-0.012,0.0115,-0.059,0.0453,0.0235,-0.0145,-0.0143,-0.077,-0.0237,-0.0143,-0.0375,0.022,-0.0037,-0.0198,-0.0235,-0.044,-0.057,0.0403,0.0395,0.002,-0.0023,-0.0503,-0.0447,-0.0362,-0.0628,-0.0165,0.0457,-0.0315,-0.0393,-0.0198,-0.0423,-0.0195,0.013,-0.046,-0.054,-0.017,-0.0232,-0.0237,-0.0385,-0.009,-0.0232,-0.0638,-0.0608,-0.059,-0.0573,-0.0408,-0.0403
-0.0452,0.0207,0.0115,0.0128,0.0635,0.0548,-0.0108,-0.0107,-0.063,-0.0252,0.0047,0.0408,0.0657,0.0078,-0.0213,-0.0223,-0.0365,-0.0068,0.0635,0,-0.0008,0.0002,-0.0507,-0.0417,-0.034,-0.061,0,0.0498,-0.0333,-0.0397,-0.0298,-0.0335,-0.001,0.0455,-0.045,-0.0545,-0.0215,-0.026,-0.0245,-0.0418,-0.0165,-0.0193,-0.0627,-0.0603,-0.0637,-0.0583,-0.039,-0.0405
-0.0357,-0.012,-0.022,0.0395,0.0165,0.0548,-0.0168,-0.009,-0.037,-0.0182,-0.0453,-0.0525,0.0035,0.0195,-0.0238,-0.0212,-0.0633,-0.048,0.0243,0.0282,-0.0048,-0.002,-0.0518,-0.0447,-0.0565,-0.06,0.0245,0.011,-0.0348,-0.0412,-0.0238,-0.036,0.0205,0.0455,-0.0473,-0.0557,-0.0232,-0.0295,-0.0337,-0.0343,-0.022,-0.0183,-0.064,-0.0617,-0.071,-0.066,-0.0417,-0.0443
-0.024,0.003,-0.0165,-0.0305,0.076,-0.0057,-0.0133,-0.007,-0.036,-0.0357,-0.0368,-0.0575,0.0375,-0.04,-0.0263,-0.0242,-0.0512,-0.0995,0.0568,0.014,-0.008,-0.0045,-0.0527,-0.044,-0.0008,-0.0488,0.0172,0.0185,-0.038,-0.0433,-0.0275,-0.0375,0,0.0253,-0.048,-0.0568,-0.0262,-0.0325,-0.034,-0.0393,-0.0255,-0.0178,-0.064,-0.062,-0.076,-0.0655,-0.045,-0.0445
-0.0387,-0.014,-0.048,-0.0245,0.0107,0.0175,-0.0193,-0.015,-0.075,-0.0552,0.0195,0.0533,0.022,-0.0222,-0.0283,-0.0252,-0.0537,-0.0358,0.0533,0.055,-0.0102,-0.0083,-0.0568,-0.0488,-0.049,-0.0643,-0.045,-0.0035,-0.0403,-0.0448,-0.0253,-0.0433,-0.0178,-0.0088,-0.0508,-0.0575,-0.0305,-0.0347,-0.036,-0.0373,-0.0197,-0.03,-0.0675,-0.0635,-0.079,-0.068,-0.0452,-0.0475
-0.0415,0.0135,-0.0165,-0.0125,0.0107,0.042,-0.016,-0.0053,-0.072,-0.0127,0.0245,0.0408,0.0375,0.0155,-0.0265,-0.0245,-0.0633,-0.0718,0.0338,0.055,-0.0052,-0.007,-0.054,-0.047,-0.0642,-0.0408,-0.0133,0.011,-0.0383,-0.044,-0.0253,-0.043,-0.004,0.036,-0.0508,-0.0572,-0.0252,-0.0297,-0.037,-0.0415,-0.0183,-0.0228,-0.0635,-0.0617,-0.071,-0.0633,-0.0465,-0.0488
-0.0285,0.0272,0,0.0128,0.0635,0.0548,-0.0123,-0.0068,-0.0568,-0.0112,-0.0188,0.0055,0.0107,-0.0075,-0.0268,-0.0187,-0.0415,-0.0358,0.0533,0.0175,-0.0032,0,-0.0503,-0.0423,-0.07,-0.066,0.0172,-0.0142,-0.0318,-0.0393,-0.0278,-0.0363,0.0103,0.0015,-0.045,-0.0535,-0.016,-0.0245,-0.026,-0.033,-0.0197,-0.0263,-0.0572,-0.0558,-0.0535,-0.0525,-0.039,-0.0398
-0.0248,0.0328,0.0232,-0.0477,0.0055,0.0483,-0.0148,-0.009,-0.039,-0.0277,0.0195,-0.0057,0.0412,0.057,-0.018,-0.0187,-0.061,-0.063,0.0635,-0.0103,-0.0022,0.0012,-0.0515,-0.0423,-0.0545,-0.0202,-0.0295,-0.0107,-0.031,-0.0385,-0.0218,-0.0333,0.007,-0.0042,-0.0435,-0.0522,-0.0177,-0.024,-0.0092,-0.0375,-0.0112,-0.0168,-0.0543,-0.0537,-0.0527,-0.053,-0.0382,-0.0393
-0.0285,-0.012,-0.0113,0.0063,0.0335,0.0175,-0.009,-0.0115,-0.0518,-0.0277,0.04,-0.027,0.0072,0.0235,-0.0193,-0.022,-0.068,-0.0688,0.118,0.0032,-0.0027,-0.0013,-0.0477,-0.0425,-0.0497,-0.0762,-0.01,0.03,-0.0328,-0.04,-0.0295,-0.0388,0.0112,0.0118,-0.044,-0.0522,-0.022,-0.0275,-0.028,-0.034,-0.0127,-0.0165,-0.0568,-0.0548,-0.056,-0.0548,-0.0395,-0.0413
-0.0442,0.023,0.0172,-0.0477,0.0165,0.042,-0.0115,-0.0118,-0.07,-0.0462,0.0195,-0.0217,0.0183,-0.033,-0.0248,-0.0163,-0.0585,-0.051,0.037,0.0175,-0.0052,0.001,-0.0488,-0.0412,-0.0395,-0.054,-0.0133,0.0038,-0.0328,-0.0397,-0.0268,-0.0398,0.004,0.0393,-0.0445,-0.0535,-0.0235,-0.0288,-0.0282,-0.0395,-0.0147,-0.0208,-0.057,-0.0548,-0.063,-0.054,-0.0402,-0.0413
-0.0202,-0.0168,-0.0273,-0.0642,-0.026,-0.0057,-0.0078,-0.0048,-0.074,-0.0397,-0.0537,-0.0575,0.0492,-0.0467,-0.026,-0.02,-0.0415,-0.0295,0.06,-0.0365,-0.006,-0.004,-0.051,-0.0447,-0.0182,-0.0513,0,0.0622,-0.0355,-0.0427,-0.02,-0.0348,-0.006,0.0175,-0.0457,-0.0545,-0.026,-0.032,-0.026,-0.0442,-0.0183,-0.0278,-0.058,-0.0565,-0.07,-0.0638,-0.041,-0.045
-0.0447,0,0,-0.0477,0.0513,0,-0.0163,-0.01,-0.0432,-0.0252,0.0095,0,0.0257,-0.0292,-0.0215,-0.0225,-0.029,-0.0295,0.0468,0.079,-0.0077,-0.0068,-0.0553,-0.0452,-0.0617,-0.054,-0.0165,0.034,-0.0385,-0.0433,-0.0275,-0.036,0.0377,-0.0072,-0.0478,-0.056,-0.0297,-0.035,-0.025,-0.0473,-0.021,-0.0235,-0.0617,-0.0595,-0.0735,-0.0663,-0.0467,-0.0458
-0.0447,0.003,0.0115,0.0395,0.1093,-0.0113,-0.0225,-0.0172,-0.068,-0.054,-0.0368,0.0348,-0.0072,-0.0075,-0.0293,-0.0255,-0.039,-0.023,0.0533,-0.0202,-0.0132,-0.008,-0.059,-0.0467,-0.0565,-0.067,-0.0358,0.0377,-0.0408,-0.0462,-0.0295,-0.0425,0.004,-0.003,-0.0505,-0.0572,-0.0332,-0.037,-0.0315,-0.042,-0.0205,-0.0278,-0.0648,-0.0613,-0.081,-0.069,-0.0455,-0.0485
-0.024,-0.0237,-0.0113,-0.0245,-0.021,-0.0222,-0.0143,-0.006,-0.066,-0.0197,-0.0453,-0.0717,0.0072,0.0318,-0.0285,-0.0248,-0.0465,-0.0888,0.05,0.032,-0.0135,-0.0103,-0.0587,-0.047,-0.0475,-0.0892,-0.01,0,-0.0428,-0.047,-0.031,-0.046,0.0257,0.0205,-0.0518,-0.0587,-0.0342,-0.038,-0.0352,-0.0448,-0.0222,-0.0343,-0.068,-0.0645,-0.0795,-0.0708,-0.048,-0.0475
-0.0415,0.0305,-0.0165,-0.0062,0,0.0175,-0.0123,-0.0078,-0.061,-0.0515,-0.0623,-0.0622,0.0183,0,-0.0263,-0.019,-0.0512,-0.0263,0.0738,0.0395,-0.0075,-0.0015,-0.05,-0.0462,-0.034,-0.0987,-0.023,0.0263,-0.035,-0.0412,-0.027,-0.039,0.0142,0,-0.047,-0.055,-0.022,-0.029,-0.0168,-0.0463,-0.0152,-0.0165,-0.0608,-0.059,-0.0542,-0.053,-0.0402,-0.0425
-0.023,-0.034,0.0232,0,0.022,0.0175,-0.0108,-0.0072,-0.0818,-0.0305,-0.058,-0.0165,-0.0175,0.0358,-0.0213,-0.0235,-0.061,-0.0198,0.0702,0.0282,-0.0075,-0.0028,-0.0507,-0.0427,-0.0182,-0.0565,0.007,0.0185,-0.0335,-0.0402,-0.0215,-0.0413,-0.0225,0,-0.0457,-0.0545,-0.0217,-0.0295,-0.0245,-0.026,-0.0172,-0.0188,-0.06,-0.057,-0.0545,-0.0505,-0.039,-0.043
-0.0345,0,0.0293,0.0128,0.0453,0.0175,-0.0135,0,-0.0527,-0.0345,0,-0.027,0.0453,-0.0037,-0.026,-0.0227,-0.0817,-0.039,0.0403,0.0667,-0.0057,-0.0028,-0.051,-0.0432,-0.0422,-0.0425,-0.0358,-0.0445,-0.0353,-0.0417,-0.0308,-0.0355,0.0122,0.0553,-0.0455,-0.0543,-0.0255,-0.0303,-0.0255,-0.0403,-0.015,-0.0217,-0.0602,-0.058,-0.0605,-0.053,-0.0405,-0.0425
-0.041,-0.0198,-0.0055,-0.0533,0.0572,0.0358,-0.0125,-0.01,-0.067,-0.0265,-0.0537,0.0055,0.0412,-0.0112,-0.0253,-0.021,0.0027,-0.0745,0.0338,0.0103,-0.0077,-0.0045,-0.052,-0.0415,-0.0602,-0.0558,0.007,0.0038,-0.0348,-0.0425,-0.026,-0.0345,0.028,0.0145,-0.046,-0.055,-0.0255,-0.0305,-0.0255,-0.0368,-0.014,-0.0275,-0.0612,-0.0593,-0.0602,-0.0573,-0.041,-0.0435
-0.0475,-0.0245,0.0293,-0.0362,0.0335,0.0235,-0.0155,-0.0075,-0.074,-0.0265,-0.0095,-0.0165,0.0375,0.04,-0.0285,-0.0237,-0.0185,-0.0745,0.0243,0.0175,-0.0105,-0.004,-0.0542,-0.0485,-0.0187,-0.0878,0.0102,-0.0347,-0.037,-0.0433,-0.032,-0.0458,0.0152,0.0058,-0.0465,-0.0557,-0.0288,-0.0343,-0.031,-0.0408,-0.0255,-0.0183,-0.0638,-0.06,-0.065,-0.0602,-0.0415,-0.0428
-0.0185,-0.0275,-0.022,-0.0362,0.022,0.0115,-0.0205,-0.0093,-0.0797,-0.017,-0.0048,-0.0575,0.0335,0.0078,-0.027,-0.0295,-0.0415,-0.0165,0.0273,0.0282,-0.0102,-0.0078,-0.0568,-0.0473,-0.0362,-0.0695,-0.0165,0.03,-0.0403,-0.0455,-0.035,-0.0383,-0.0235,0.0175,-0.0495,-0.0577,-0.0322,-0.0375,-0.0242,-0.042,-0.0222,-0.0243,-0.0667,-0.0628,-0.0702,-0.066,-0.0462,-0.0465
-0.0495,-0.0302,-0.0113,-0.075,0.0513,0.0235,-0.0173,-0.0095,-0.0527,-0.0357,0,-0.0525,0.0297,0.004,-0.035,-0.0252,-0.0633,-0.0165,0.088,0.032,-0.0165,-0.0095,-0.0602,-0.0485,-0.0597,-0.054,-0.0198,0.011,-0.042,-0.0475,-0.0325,-0.044,0.0092,0.0297,-0.0515,-0.0597,-0.0355,-0.039,-0.028,-0.0445,-0.0305,-0.0415,-0.069,-0.0655,-0.0795,-0.0725,-0.0467,-0.0483
-0.0515,0.0083,0,-0.059,0,0.0057,-0.0297,-0.0143,-0.071,-0.0197,-0.0188,-0.0322,-0.0312,0.0078,-0.0325,-0.0272,-0.039,-0.0165,0.0635,0.0068,-0.0192,-0.0093,-0.062,-0.052,-0.0367,-0.067,-0.0068,-0.0142,-0.044,-0.0492,-0.0358,-0.045,-0.0252,-0.0015,-0.0537,-0.0612,-0.0362,-0.04,-0.0367,-0.0473,-0.0227,-0.0373,-0.0717,-0.067,-0.0772,-0.0693,-0.051,-0.0513
-0.0395,-0.001,0.0115,-0.0305,0.0697,0.0548,-0.012,-0.003,-0.058,-0.0305,-0.0095,-0.0575,0.0257,0.0318,-0.0243,-0.0192,-0.049,-0.051,0.0435,-0.0035,-0.0128,-0.0028,-0.0533,-0.0462,-0.0245,-0.0713,-0.0295,-0.0445,-0.0355,-0.043,-0.0325,-0.0408,0.0215,0,-0.049,-0.0572,-0.0235,-0.0315,-0.0232,-0.0405,-0.0168,-0.0283,-0.0655,-0.061,-0.0535,-0.051,-0.0437,-0.0453
-0.024,0.0155,0.0115,-0.0477,-0.0105,0.0613,-0.01,-0.0125,-0.0217,-0.0277,-0.0323,-0.011,0.0335,-0.0257,-0.0258,-0.0237,-0.0185,-0.048,0.0338,0.055,-0.0107,-0.0035,-0.054,-0.0455,-0.0437,-0.054,-0.0263,-0.007,-0.0355,-0.0425,-0.0258,-0.0368,-0.0475,-0.017,-0.0475,-0.0557,-0.0242,-0.033,-0.0255,-0.0355,-0.0252,-0.0278,-0.0623,-0.0595,-0.0547,-0.0537,-0.0393,-0.0438
-0.0212,-0.006,0.0477,-0.0362,0.0453,-0.0113,-0.003,-0.0057,-0.058,-0.045,0.0452,0.017,0.0257,0.0485,-0.0258,-0.0217,-0.0365,-0.048,0.021,0.0395,-0.0082,-0.0038,-0.0535,-0.0455,-0.0507,-0.066,-0.0068,0.0457,-0.0355,-0.0417,-0.028,-0.0395,-0.009,-0.0057,-0.0475,-0.0562,-0.026,-0.0318,-0.0157,-0.0308,-0.0145,-0.0265,-0.0623,-0.0595,-0.0622,-0.0553,-0.041,-0.0443
-0.0532,0.0145,0.0115,0.0193,0.0278,0.0115,-0.0068,-0.0055,-0.058,-0.0292,0.0195,0.0348,0.022,0.057,-0.0288,-0.0215,-0.0212,-0.023,0.0773,0.0282,-0.0095,-0.003,-0.054,-0.0455,-0.0205,-0.027,0.0102,0.03,-0.0355,-0.043,-0.0265,-0.0408,0.042,0.0043,-0.0478,-0.0562,-0.0262,-0.0335,-0.026,-0.0353,-0.0237,-0.0228,-0.0638,-0.0608,-0.0625,-0.056,-0.0405,-0.0448
-0.0475,-0.007,-0.0055,-0.0305,0.0107,-0.0435,-0.013,-0.006,-0.076,0.0088,-0.0368,-0.011,0.022,0.0358,-0.025,-0.0232,-0.016,-0.042,0.0243,0.0175,-0.0105,-0.0057,-0.056,-0.0485,-0.0187,-0.0653,0,0.0185,-0.0375,-0.0427,-0.0325,-0.0415,-0.003,-0.0042,-0.0485,-0.0572,-0.0307,-0.0358,-0.0245,-0.0315,-0.0225,-0.0283,-0.0655,-0.062,-0.0682,-0.06,-0.0435,-0.0453
0.003,0.0155,0.0172,-0.075,0.0278,0.0115,-0.0158,-0.014,-0.069,0,-0.0495,-0.027,0.0145,0.0613,-0.0303,-0.0248,-0.034,-0.0295,0.015,0.0248,-0.0142,-0.0078,-0.0587,-0.0473,-0.0277,-0.0728,-0.039,0.0072,-0.0405,-0.046,-0.0278,-0.0423,-0.001,-0.0115,-0.0508,-0.0585,-0.034,-0.0377,-0.0302,-0.0377,-0.0162,-0.0217,-0.069,-0.065,-0.0725,-0.0648,-0.0437,-0.0473
-0.0377,0.0092,-0.0273,-0.0125,-0.0105,0.0057,-0.022,-0.0115,-0.075,0.0058,-0.0323,-0.027,0.0453,0.04,-0.032,-0.024,-0.016,-0.048,0.015,0.0282,-0.014,-0.0078,-0.0605,-0.051,-0.0497,-0.0398,-0.0068,0.0418,-0.0435,-0.0473,-0.0273,-0.0448,0.002,0.0253,-0.0535,-0.0608,-0.0372,-0.041,-0.032,-0.0468,-0.021,-0.0297,-0.0715,-0.067,-0.081,-0.0703,-0.0473,-0.0505
-0.0462,-0.015,0.0605,-0.0533,0.0453,0.0175,-0.0183,-0.0105,-0.062,-0.032,-0.0623,0,0.022,-0.0292,-0.0365,-0.0267,-0.075,-0.0295,0.0305,0.0587,-0.0185,-0.0105,-0.062,-0.0542,-0.0475,-0.0415,0,-0.051,-0.045,-0.0492,-0.04,-0.047,-0.005,0.0175,-0.0555,-0.0633,-0.0397,-0.042,-0.0417,-0.0515,-0.024,-0.0388,-0.0737,-0.0693,-0.081,-0.073,-0.053,-0.0518
-0.0382,-0.0265,-0.0055,-0.059,0.0165,0.0548,-0.0083,-0.0027,-0.0557,-0.0015,-0.0278,-0.0375,-0.0377,0.0443,-0.0297,-0.0305,-0.0772,-0.042,0.0738,0.0708,-0.0155,-0.0085,-0.059,-0.0535,-0.0427,-0.0965,0,0,-0.0413,-0.0462,-0.031,-0.0515,-0.002,-0.0015,-0.0537,-0.0615,-0.0312,-0.0355,-0.0335,-0.0403,-0.0237,-0.0258,-0.0715,-0.0675,-0.0657,-0.0615,-0.05,-0.05
-0.0297,0.0092,-0.0055,-0.0362,0.0165,0.0235,-0.0178,-0.0033,-0.0475,-0.0437,-0.058,-0.0902,0.0785,-0.015,-0.0308,-0.0265,-0.0365,-0.066,0.06,0.0432,-0.013,-0.0045,-0.0568,-0.0485,-0.049,-0.0505,-0.054,0.0418,-0.036,-0.0425,-0.0305,-0.048,0.029,0.0103,-0.0508,-0.0587,-0.0257,-0.0322,-0.0365,-0.0395,-0.0197,-0.0258,-0.0685,-0.0648,-0.0555,-0.054,-0.0422,-0.0435
0.0053,-0.004,0.0115,-0.0245,0.0572,0.0358,-0.007,0.0072,-0.076,-0.045,-0.058,-0.0475,0.0657,0.0155,-0.0303,-0.0217,-0.068,-0.0358,0.0635,0.021,-0.0112,-0.0028,-0.0527,-0.0465,-0.0527,-0.077,0.039,-0.007,-0.034,-0.042,-0.0263,-0.0435,0.0103,-0.0072,-0.049,-0.058,-0.0252,-0.0328,-0.0202,-0.0488,-0.0165,-0.0285,-0.0675,-0.0633,-0.0557,-0.0558,-0.0402,-0.0445
-0.028,-0.01,-0.0165,-0.0533,0.0165,0.0235,-0.0145,-0.0088,-0.06,-0.0425,0.0047,-0.011,0.0035,0.0118,-0.028,-0.0223,-0.0465,-0.057,0.0702,-0.017,-0.01,-0.0048,-0.0577,-0.0485,-0.041,-0.077,0.0427,0.011,-0.0365,-0.0427,-0.027,-0.042,-0.0263,0.0072,-0.0508,-0.0583,-0.0277,-0.035,-0.019,-0.042,-0.0165,-0.0243,-0.0682,-0.0648,-0.0612,-0.056,-0.0412,-0.0448
-0.0185,-0.0187,0.0172,0.0063,-0.0053,-0.0278,-0.0188,-0.0083,-0.063,-0.0057,-0.0537,0,0.0335,0.0078,-0.03,-0.0267,-0.0315,-0.048,0.0273,-0.007,-0.0112,-0.0053,-0.055,-0.049,-0.0055,-0.0803,-0.0133,0.054,-0.0377,-0.043,-0.027,-0.0393,-0.029,0.0312,-0.0503,-0.059,-0.029,-0.0347,-0.0287,-0.0483,-0.0225,-0.0255,-0.0685,-0.065,-0.0648,-0.057,-0.0427,-0.046
-0.0605,-0.006,-0.0055,0.0193,0,0.0175,-0.0143,-0.007,-0.076,-0.0397,0.0095,-0.0322,0.0257,0,-0.0377,-0.0277,-0.0537,-0.042,0.037,-0.0103,-0.0145,-0.0068,-0.0613,-0.0507,-0.0317,-0.0762,0.0245,-0.007,-0.04,-0.045,-0.0338,-0.0438,0.003,0.0297,-0.053,-0.0605,-0.0357,-0.0377,-0.0245,-0.0415,-0.015,-0.0348,-0.0703,-0.0668,-0.0735,-0.0635,-0.0477,-0.0463
-0.0092,0.037,-0.0055,-0.0125,-0.0053,0.0057,-0.0243,-0.0155,-0.0498,-0.0502,0.0145,-0.027,0,0.0118,-0.032,-0.0288,-0.0657,-0.0688,0.037,0.032,-0.016,-0.01,-0.0607,-0.0527,-0.041,-0.0738,0.0352,0.0072,-0.043,-0.0467,-0.037,-0.0398,0.0162,0.0058,-0.0553,-0.0623,-0.038,-0.0412,-0.0382,-0.0338,-0.0195,-0.0338,-0.0728,-0.0688,-0.0782,-0.0645,-0.0477,-0.0493
-0.0285,-0.015,-0.0165,-0.0533,0.022,-0.0057,-0.012,-0.0135,-0.073,-0.0127,0.0047,-0.011,-0.0072,0.0155,-0.0375,-0.0272,-0.0728,-0.045,0.1028,-0.0137,-0.0197,-0.012,-0.0663,-0.056,-0.046,-0.0753,0,0.0377,-0.045,-0.0492,-0.0298,-0.05,0,0.0205,-0.0573,-0.0642,-0.0395,-0.0425,-0.028,-0.0457,-0.0297,-0.0295,-0.0765,-0.071,-0.0827,-0.0725,-0.0505,-0.0525
-0.0577,-0.0217,0.0477,0,0.022,0.0115,-0.023,-0.0105,-0.068,-0.0477,0.0505,-0.067,0.0743,-0.0365,-0.0383,-0.0328,-0.0537,-0.039,0.05,0.0282,-0.0212,-0.0123,-0.0675,-0.0562,-0.0382,-0.0745,0.0172,0,-0.0473,-0.0513,-0.038,-0.0488,-0.0263,-0.01,-0.0577,-0.0645,-0.0415,-0.0445,-0.0367,-0.0475,-0.0297,-0.0353,-0.0772,-0.072,-0.086,-0.0758,-0.0555,-0.0538
-0.0387,0.002,0.0057,0,0.0453,-0.0057,-0.014,-0.0063,-0.0507,-0.0565,-0.0048,-0.0525,0.0107,-0.0365,-0.0315,-0.0277,-0.0562,-0.057,0.015,0.079,-0.0132,-0.0063,-0.0572,-0.05,-0.0592,-0.0558,0.007,0.0377,-0.0383,-0.0442,-0.0325,-0.0465,-0.005,-0.024,-0.0533,-0.0602,-0.0265,-0.033,-0.0272,-0.0408,-0.0265,-0.0223,-0.0705,-0.067,-0.0557,-0.0553,-0.0455,-0.0455
-0.0275,0.0092,-0.0055,-0.0245,0.0278,0.0115,-0.018,-0.0078,-0.0797,-0.0225,-0.0785,-0.0622,-0.0072,-0.0222,-0.0245,-0.0263,-0.061,-0.0745,0.0305,0.0103,-0.0005,-0.0045,-0.056,-0.05,-0.046,-0.0803,0.0035,0.0148,-0.0365,-0.0435,-0.0335,-0.0443,0.0355,0.0205,-0.0505,-0.0602,-0.0277,-0.035,-0.0225,-0.0413,-0.0235,-0.0273,-0.0678,-0.0642,-0.0597,-0.051,-0.0415,-0.0458
-0.0263,0.025,-0.0165,0.0128,0.0278,0,-0.0137,-0.0045,-0.068,-0.0155,-0.0048,-0.027,0,-0.0037,-0.0315,-0.0277,-0.0365,-0.0888,0.0773,0.0832,-0.0095,-0.0053,-0.058,-0.05,-0.0527,-0.072,0.021,-0.0035,-0.0377,-0.0435,-0.0328,-0.0455,0.0152,0.016,-0.051,-0.0595,-0.0297,-0.0353,-0.0302,-0.0347,-0.0187,-0.0275,-0.067,-0.063,-0.0612,-0.0558,-0.0445,-0.046
-0.048,-0.008,0,-0.0305,0.0393,-0.0435,-0.0115,-0.0105,-0.0485,-0.0702,-0.0278,-0.0425,0.022,-0.0185,-0.028,-0.0305,-0.093,-0.045,0.006,0.0248,-0.0107,-0.0075,-0.0583,-0.0505,-0.0575,-0.0575,0.0245,0.03,-0.0385,-0.0445,-0.029,-0.0458,0.0332,-0.0115,-0.0505,-0.0595,-0.029,-0.0372,-0.027,-0.0288,-0.019,-0.032,-0.0667,-0.0638,-0.066,-0.061,-0.0473,-0.0463
-0.0415,-0.016,0.0172,-0.0362,0.0335,0.0483,-0.0163,-0.0113,-0.0527,-0.0357,-0.0453,-0.0217,0.0453,0.0078,-0.0303,-0.0277,-0.0953,-0.057,0.015,0.014,-0.0147,-0.0093,-0.0592,-0.0525,-0.055,-0.0885,0.0317,-0.021,-0.041,-0.0448,-0.0333,-0.0493,0.0248,0.0145,-0.0528,-0.0605,-0.0335,-0.0383,-0.0307,-0.039,-0.0317,-0.0318,-0.0682,-0.0657,-0.0687,-0.0608,-0.0448,-0.05
-0.0345,-0.009,0.0115,-0.0305,0.0278,0.042,-0.0173,-0.012,-0.0548,-0.0332,-0.0323,0.0113,0.0072,0.057,-0.0348,-0.0295,-0.044,-0.0745,0.0738,0.0103,-0.0147,-0.01,-0.061,-0.053,-0.0555,-0.09,0.0035,-0.0142,-0.0428,-0.0475,-0.038,-0.0488,0.0162,0.0088,-0.0548,-0.0623,-0.0375,-0.0425,-0.0362,-0.0455,-0.0242,-0.0353,-0.0707,-0.067,-0.0772,-0.069,-0.0505,-0.049
-0.019,0.0042,-0.0325,-0.059,0.0278,0.0235,-0.026,-0.0163,-0.073,-0.0252,0.0047,-0.0375,0.0335,0.004,-0.033,-0.0297,-0.0025,-0.0775,0.0273,0.0282,-0.0165,-0.011,-0.0657,-0.0555,-0.0652,-0.0703,0.0245,0.0418,-0.0453,-0.0502,-0.0418,-0.0543,-0.0148,-0.0115,-0.057,-0.0637,-0.0397,-0.0438,-0.0387,-0.045,-0.032,-0.036,-0.0735,-0.0695,-0.085,-0.0713,-0.0517,-0.0503
-0.0457,-0.012,0.0172,0.0128,0.076,0.0235,-0.0205,-0.021,-0.0942,-0.0265,-0.0453,-0.0375,0.0107,-0.0222,-0.0338,-0.031,-0.106,-0.0328,0.0533,-0.0137,-0.0185,-0.0137,-0.0655,-0.0522,-0.0255,-0.098,0.039,0.0148,-0.0485,-0.0517,-0.043,-0.0525,-0.0118,0.0345,-0.0598,-0.0663,-0.0447,-0.045,-0.0425,-0.048,-0.0375,-0.0385,-0.077,-0.0722,-0.088,-0.0733,-0.0545,-0.0553
-0.0457,0.0053,0.0293,-0.0697,0.0453,0,-0.009,-0.0202,-0.0788,-0.0085,-0.0495,-0.0525,0.0035,0,-0.04,-0.0295,-0.008,-0.0358,0.0845,0.051,-0.0205,-0.0115,-0.0652,-0.052,-0.0627,-0.0853,0.0137,-0.0107,-0.0463,-0.05,-0.042,-0.051,0.0257,0.0345,-0.058,-0.0648,-0.0347,-0.0423,-0.0465,-0.047,-0.025,-0.0318,-0.0757,-0.071,-0.0777,-0.0678,-0.053,-0.0533
-0.0405,0.0315,-0.043,0,0.0393,0.0613,-0.011,-0.0198,-0.0568,0.0145,-0.0453,-0.0165,0.0412,0.004,-0.0353,-0.0248,-0.0817,-0.051,0.067,0.0432,-0.0107,-0.0068,-0.0592,-0.0505,-0.0187,-0.0583,0.0035,0.0038,-0.04,-0.0457,-0.0385,-0.0508,-0.011,-0.0015,-0.054,-0.0615,-0.0295,-0.036,-0.024,-0.038,-0.0255,-0.0273,-0.0705,-0.066,-0.0605,-0.0553,-0.0467,-0.0493
-0.033,-0.004,0.0293,-0.042,0.0453,-0.0278,-0.013,-0.0107,-0.0423,-0.0397,-0.0368,-0.011,-0.0143,0.0528,-0.031,-0.0275,-0.044,-0.045,0.0845,0.0175,-0.0107,-0.008,-0.0602,-0.054,-0.026,-0.0753,-0.0033,0.0222,-0.0403,-0.046,-0.0345,-0.045,-0.032,-0.0292,-0.0535,-0.061,-0.0305,-0.0362,-0.033,-0.048,-0.0252,-0.0228,-0.069,-0.0653,-0.063,-0.0553,-0.0455,-0.0495
-0.0467,-0.006,-0.0055,-0.0185,0.0335,0.0057,-0.016,-0.01,-0.065,-0.021,-0.0278,-0.0057,0.0183,0.0275,-0.029,-0.0292,-0.049,-0.063,0.0568,0.0175,-0.0107,-0.0083,-0.0587,-0.0505,-0.0695,-0.0495,0.0102,0.03,-0.0415,-0.0462,-0.0358,-0.0535,-0.0158,0.0617,-0.0543,-0.0617,-0.0342,-0.0393,-0.028,-0.0413,-0.0292,-0.0318,-0.0692,-0.066,-0.0732,-0.06,-0.048,-0.0498
-0.0312,0.024,-0.063,-0.0362,0.022,0.0115,-0.0315,-0.0168,-0.0455,-0.054,-0.0453,0.0228,0.0107,0.0235,-0.0315,-0.0252,-0.0633,-0.0133,0.0533,0.0395,-0.0122,-0.0063,-0.0607,-0.0507,-0.0652,-0.0713,0.039,0.0038,-0.041,-0.0465,-0.0323,-0.0438,-0.0355,0.0058,-0.055,-0.0615,-0.0357,-0.0408,-0.0287,-0.049,-0.0252,-0.0188,-0.0703,-0.0663,-0.07,-0.0588,-0.05,-0.0493
-0.0475,0.0053,0.0293,0.0128,0.0278,0.0115,-0.0163,-0.0158,-0.071,-0.0182,-0.0188,0.0348,0.0492,-0.0037,-0.0333,-0.0277,-0.0053,-0.045,0.021,0.0175,-0.0147,-0.0095,-0.0645,-0.0532,-0.0745,-0.036,-0.0295,0.0222,-0.0445,-0.0485,-0.043,-0.0478,-0.0118,-0.0127,-0.0555,-0.0637,-0.04,-0.0427,-0.0423,-0.0403,-0.0297,-0.03,-0.0732,-0.069,-0.077,-0.0668,-0.053,-0.0515
-0.035,0.0112,0.0352,0.0063,0.0453,0.0175,-0.0168,-0.012,-0.059,0.0058,-0.0623,-0.027,0.0257,0.0485,-0.0335,-0.0328,-0.0795,-0.066,0.0568,0.0175,-0.0157,-0.0123,-0.0655,-0.0547,-0.0512,-0.037,-0.0165,-0.0107,-0.0478,-0.0507,-0.0308,-0.0503,-0.009,0.0072,-0.0577,-0.0645,-0.0415,-0.0452,-0.0412,-0.0503,-0.0317,-0.0358,-0.0755,-0.0713,-0.0835,-0.0697,-0.0528,-0.052
-0.0395,0.0042,-0.048,-0.0185,0.076,0.0548,-0.0188,-0.0098,-0.073,-0.0042,-0.0232,-0.027,0.0107,0.0118,-0.0395,-0.0295,-0.0465,-0.048,0.012,0,-0.021,-0.0137,-0.0672,-0.055,-0.0627,-0.0998,-0.0133,-0.007,-0.0497,-0.0527,-0.0393,-0.0538,-0.029,0.0223,-0.06,-0.0675,-0.0442,-0.0475,-0.0362,-0.0493,-0.0375,-0.0383,-0.0772,-0.0733,-0.085,-0.0777,-0.0562,-0.0555
-0.0387,0.0295,-0.0113,-0.0185,0.0393,0.042,-0.0253,-0.018,-0.025,-0.049,0.0195,0.0055,0.0107,0.0118,-0.0377,-0.0337,-0.0562,-0.06,0.0403,0.0832,-0.02,-0.0152,-0.065,-0.0555,-0.0607,-0.0835,0,-0.007,-0.0495,-0.0525,-0.049,-0.0468,-0.0252,0.019,-0.0608,-0.0675,-0.0435,-0.0442,-0.0425,-0.0528,-0.0335,-0.0353,-0.0785,-0.0733,-0.0837,-0.0728,-0.0545,-0.0555
-0.0447,-0.0198,0.0415,-0.0062,0.0955,0.0057,-0.0113,-0.0158,-0.0808,-0.0397,-0.0537,-0.011,0.022,-0.0112,-0.0358,-0.024,-0.061,-0.042,0.0953,0.0473,-0.0137,-0.0068,-0.0615,-0.0503,-0.0545,-0.094,0.0035,0.034,-0.042,-0.0467,-0.039,-0.0505,-0.0178,-0.0072,-0.0555,-0.0625,-0.0312,-0.0372,-0.0328,-0.0455,-0.026,-0.0325,-0.0705,-0.067,-0.0633,-0.0583,-0.0495,-0.0485
-0.0405,0.0187,-0.0113,0.0063,0.0453,0.0483,-0.022,-0.0168,-0.0922,-0.0397,-0.0188,-0.0057,0.0657,0.0358,-0.031,-0.0267,-0.0657,-0.066,0.118,-0.0427,-0.0122,-0.008,-0.0598,-0.0515,-0.0517,-0.0965,0.021,0.0148,-0.0417,-0.0462,-0.0323,-0.0525,-0.005,0.0015,-0.055,-0.0617,-0.032,-0.0377,-0.0365,-0.0375,-0.024,-0.0328,-0.07,-0.0657,-0.0648,-0.058,-0.0477,-0.0508
-0.0432,0.0103,-0.0165,-0.0477,0.0055,0.0057,-0.011,-0.0183,-0.0942,-0.01,-0.0188,-0.067,-0.0035,0.0443,-0.0323,-0.025,-0.106,-0.054,0.015,0.0628,-0.0117,-0.0063,-0.0625,-0.0503,-0.072,-0.1005,-0.0328,-0.0245,-0.0425,-0.047,-0.0312,-0.051,-0.0235,0.036,-0.0548,-0.0623,-0.0353,-0.039,-0.032,-0.0403,-0.036,-0.03,-0.0715,-0.0678,-0.0672,-0.062,-0.0482,-0.0505
-0.033,-0.0187,-0.0113,-0.0305,0.0513,0.0358,-0.0228,-0.009,-0.0818,-0.0357,-0.0453,0,0.022,-0.0112,-0.031,-0.0232,-0.0795,-0.048,0.0533,-0.0235,-0.013,-0.0075,-0.0607,-0.0485,-0.0735,-0.0812,0.0172,0.0148,-0.0423,-0.048,-0.0408,-0.0435,0.0175,-0.0072,-0.055,-0.063,-0.0362,-0.04,-0.0312,-0.041,-0.0263,-0.0295,-0.0722,-0.0675,-0.073,-0.0635,-0.0488,-0.0488
-0.034,-0.009,-0.0055,-0.0477,0.0393,0.042,-0.008,-0.0143,-0.0485,-0.049,-0.0188,-0.0902,0.0107,-0.0535,-0.0312,-0.023,-0.044,-0.057,0.0435,0.079,-0.014,-0.0093,-0.0607,-0.0525,-0.056,-0.0878,-0.0263,0.0498,-0.0453,-0.0502,-0.0393,-0.0433,0.029,0.0145,-0.0568,-0.0648,-0.0385,-0.0425,-0.0473,-0.0507,-0.0317,-0.0362,-0.0743,-0.069,-0.0787,-0.065,-0.0497,-0.049
-0.0387,0.0207,-0.048,-0.0125,0.0697,0.0175,-0.0173,-0.0152,-0.066,-0.0057,-0.0663,-0.0622,0.0257,0.0318,-0.0345,-0.031,-0.029,-0.066,0.0435,0.051,-0.0177,-0.0128,-0.0633,-0.0527,-0.0565,-0.0795,0.039,0.0222,-0.0475,-0.0507,-0.0408,-0.053,0.0152,0.052,-0.0588,-0.066,-0.043,-0.0457,-0.0417,-0.053,-0.0335,-0.0408,-0.0775,-0.0713,-0.0827,-0.073,-0.0528,-0.0525
-0.0302,-0.0377,-0.0113,-0.0185,0.0825,0.0235,-0.0297,-0.0145,-0.0903,-0.0727,-0.0095,0.0408,0.0297,-0.015,-0.0377,-0.0305,-0.0772,-0.0745,-0.003,0.0473,-0.02,-0.014,-0.0675,-0.055,-0.0745,-0.0685,-0.023,-0.0107,-0.0503,-0.0522,-0.0405,-0.049,0.0332,0.0103,-0.0623,-0.0675,-0.046,-0.0482,-0.0473,-0.0537,-0.0375,-0.0343,-0.081,-0.0737,-0.089,-0.0747,-0.057,-0.0568
-0.0362,0.003,-0.022,-0.059,0.0572,0.0745,-0.0243,-0.0193,-0.062,-0.054,-0.0278,-0.0717,0.0785,0.0358,-0.0363,-0.0322,-0.0537,-0.051,0.0468,0,-0.0227,-0.0137,-0.0687,-0.0565,-0.0328,-0.0713,-0.0068,-0.028,-0.0535,-0.0553,-0.0443,-0.06,-0.0282,-0.0225,-0.0638,-0.0692,-0.048,-0.0507,-0.0417,-0.0513,-0.0337,-0.043,-0.0827,-0.0758,-0.092,-0.0795,-0.0585,-0.057
-0.0357,-0.0302,-0.0165,0.0258,0.0513,0.0295,-0.0232,-0.0115,-0.07,-0.0112,-0.0048,-0.067,0.0453,0.0318,-0.0325,-0.0282,-0.061,-0.063,0.0338,0.0667,-0.015,-0.0118,-0.065,-0.054,-0.0685,-0.0635,0,-0.038,-0.046,-0.0502,-0.0398,-0.0543,0.0237,0.0043,-0.059,-0.0657,-0.037,-0.0408,-0.0405,-0.0473,-0.0237,-0.042,-0.0768,-0.0718,-0.0687,-0.0668,-0.0522,-0.0535
-0.0582,0.001,-0.0113,-0.0185,0.0107,0.0115,-0.0178,-0.0148,-0.0412,-0.0142,0.0347,-0.0475,0.022,-0.0112,-0.0293,-0.027,-0.0537,-0.051,0.0243,0.0667,-0.0132,-0.0072,-0.0605,-0.0507,-0.0695,-0.0488,-0.0263,-0.0107,-0.044,-0.0473,-0.0383,-0.0415,0.0248,0.0253,-0.0577,-0.0648,-0.0345,-0.0398,-0.0375,-0.0475,-0.0332,-0.0328,-0.0732,-0.069,-0.0663,-0.055,-0.049,-0.0508
-0.019,-0.008,0.0293,-0.059,0.0165,0.0115,-0.003,-0.0148,-0.0498,-0.017,-0.0453,-0.0322,0.0533,0.0155,-0.037,-0.023,-0.1037,-0.066,0.0533,0.055,-0.0142,-0.0078,-0.0613,-0.0485,-0.046,-0.0933,0.086,0.034,-0.0428,-0.0475,-0.0408,-0.0525,0.0205,-0.0015,-0.0562,-0.0642,-0.0365,-0.04,-0.0335,-0.0377,-0.0267,-0.0328,-0.0732,-0.069,-0.0652,-0.0588,-0.049,-0.0508
-0.023,-0.001,0.0293,-0.0245,0,0.042,-0.0193,-0.011,-0.0498,-0.0397,-0.0663,0.0055,0.07,-0.0185,-0.032,-0.0245,-0.0537,-0.039,0.012,0.014,-0.0137,-0.0068,-0.0617,-0.051,-0.0665,-0.0892,-0.0328,0.075,-0.0445,-0.0488,-0.044,-0.0553,0.0092,0,-0.058,-0.0655,-0.0385,-0.0417,-0.0423,-0.049,-0.0232,-0.0395,-0.0747,-0.07,-0.0707,-0.062,-0.05,-0.0505
-0.048,-0.036,-0.0055,-0.0125,0.0635,0.0115,-0.0213,-0.006,-0.07,-0.0142,0,-0.0057,0.0412,0.0155,-0.0318,-0.0263,-0.039,-0.0745,0.0243,0.0432,-0.0142,-0.0083,-0.0615,-0.054,-0.055,-0.1075,-0.0263,-0.028,-0.045,-0.0492,-0.0405,-0.0513,-0.0118,0.0058,-0.0585,-0.0655,-0.039,-0.0445,-0.0352,-0.0515,-0.0322,-0.0248,-0.0765,-0.0713,-0.0735,-0.0665,-0.0522,-0.0528
-0.0605,0.001,-0.0165,-0.075,0.0335,0.0613,-0.0115,-0.016,-0.0912,-0.059,-0.0745,-0.0425,0.0335,0.04,-0.0358,-0.0307,-0.0212,-0.0803,0.015,-0.007,-0.0168,-0.0128,-0.065,-0.0545,-0.0755,-0.091,-0.0688,-0.0178,-0.0483,-0.0507,-0.0438,-0.0598,0.0248,-0.0372,-0.0615,-0.0673,-0.0422,-0.0463,-0.0322,-0.0528,-0.0275,-0.0388,-0.0785,-0.0735,-0.0812,-0.0713,-0.051,-0.053
-0.0335,-0.0255,-0.0273,-0.042,0.0335,-0.0382,-0.013,-0.0183,-0.0777,-0.032,-0.058,-0.0165,-0.0312,0.0443,-0.0368,-0.0292,-0.0365,-0.0888,0.037,0.0068,-0.0208,-0.0137,-0.067,-0.0545,-0.049,-0.1043,0.0465,0.0457,-0.051,-0.0535,-0.043,-0.0538,-0.0187,0.0088,-0.0628,-0.0697,-0.047,-0.049,-0.0452,-0.051,-0.028,-0.0428,-0.0825,-0.075,-0.0875,-0.0768,-0.0568,-0.0565
-0.0452,-0.037,0.0172,-0.0245,0.0453,0.0057,-0.0205,-0.0228,-0.0568,-0.074,-0.0232,-0.0165,0.0615,0.0235,-0.0403,-0.0272,-0.0537,-0.0328,0.0468,-0.0137,-0.023,-0.0158,-0.0682,-0.0587,-0.0497,-0.0678,0.0035,-0.0445,-0.0537,-0.0555,-0.0443,-0.0565,-0.0128,-0.017,-0.0653,-0.0707,-0.0485,-0.05,-0.0473,-0.0503,-0.0345,-0.0442,-0.0855,-0.079,-0.0932,-0.0758,-0.0575,-0.059
-0.0462,-0.009,0,-0.0305,0.0513,0.0235,-0.0175,-0.0158,-0.067,-0.0357,-0.0495,-0.011,0.0335,0.0318,-0.037,-0.033,-0.0537,-0.0718,0.0243,0.0395,-0.0225,-0.0152,-0.0713,-0.0557,-0.048,-0.0738,-0.0198,0.034,-0.0545,-0.0557,-0.0513,-0.0563,-0.0178,0.0015,-0.0657,-0.0715,-0.0462,-0.049,-0.045,-0.0507,-0.0367,-0.0375,-0.085,-0.0783,-0.09,-0.0753,-0.0585,-0.0575
-0.0527,-0.001,-0.0165,-0.0185,0.0335,0.0235,-0.015,-0.0075,-0.06,-0.0372,0.0245,-0.0525,0.0145,0.0078,-0.0323,-0.0305,-0.0772,-0.0857,0.06,0.0103,-0.0155,-0.0093,-0.0613,-0.0522,-0.0597,-0.1043,0.0102,0.0622,-0.045,-0.0495,-0.0448,-0.048,-0.005,0.0268,-0.0608,-0.0675,-0.037,-0.0405,-0.0335,-0.0507,-0.029,-0.033,-0.0793,-0.072,-0.067,-0.0578,-0.0497,-0.052
-0.05,-0.0228,-0.043,-0.0533,0.0393,0.042,-0.025,-0.0095,-0.071,-0.0412,0.0195,-0.0765,-0.0175,0.0318,-0.031,-0.0292,-0.0265,-0.0888,0.018,0.075,-0.0152,-0.0088,-0.0617,-0.0537,-0.0617,-0.0788,0.0035,-0.051,-0.0457,-0.049,-0.039,-0.053,-0.0195,0.013,-0.0608,-0.067,-0.038,-0.042,-0.0347,-0.0455,-0.029,-0.0263,-0.0768,-0.0718,-0.0713,-0.0608,-0.0495,-0.05
-0.0285,0.0053,-0.0165,0.0258,0.022,0.0115,-0.0225,-0.0072,-0.1063,-0.017,-0.0495,-0.0322,0.0375,0.0358,-0.0318,-0.0263,-0.0315,-0.01,0.003,0.014,-0.0162,-0.0078,-0.0633,-0.055,-0.0575,-0.0745,-0.023,0.011,-0.0463,-0.0505,-0.0375,-0.0505,0.001,0.0455,-0.0595,-0.0673,-0.0393,-0.0435,-0.041,-0.0488,-0.0248,-0.0375,-0.0777,-0.0728,-0.0717,-0.066,-0.0515,-0.0515
-0.0297,-0.004,0,-0.0305,0.0453,0.0115,-0.0105,-0.0175,-0.0548,-0.0042,-0.0278,0,0.0375,0.0358,-0.034,-0.0295,-0.084,-0.051,0.099,0.051,-0.018,-0.0095,-0.0665,-0.0537,-0.048,-0.095,-0.0358,0,-0.0465,-0.051,-0.0408,-0.0545,-0.0263,-0.0412,-0.0608,-0.067,-0.0387,-0.0438,-0.0358,-0.0525,-0.0255,-0.0213,-0.0783,-0.0735,-0.0777,-0.0673,-0.0522,-0.051
-0.0442,0.0187,-0.0055,-0.0533,0.0335,0.0115,-0.0165,-0.0088,-0.0548,-0.045,-0.0368,0.0288,0.0453,0,-0.0358,-0.029,-0.0537,-0.083,0.015,0.0667,-0.019,-0.012,-0.0672,-0.052,-0.057,-0.0713,-0.023,-0.0142,-0.0483,-0.052,-0.035,-0.0493,0.0142,-0.0057,-0.062,-0.068,-0.043,-0.045,-0.0365,-0.0475,-0.0332,-0.0308,-0.0815,-0.0755,-0.082,-0.0673,-0.053,-0.0523
-0.0452,-0.0178,-0.0055,-0.0305,0.0393,0,-0.0305,-0.0178,-0.0777,-0.0225,-0.0278,-0.0165,0,0.0235,-0.039,-0.0272,-0.049,-0.0718,0.012,0,-0.022,-0.0112,-0.0697,-0.0547,-0.075,-0.0827,0.0035,-0.0035,-0.0513,-0.053,-0.0415,-0.0545,-0.0178,-0.0492,-0.0642,-0.07,-0.047,-0.0488,-0.048,-0.056,-0.0248,-0.0217,-0.0835,-0.0777,-0.0885,-0.075,-0.0557,-0.0545
-0.0322,-0.0237,-0.022,-0.0533,0.0335,-0.0278,-0.0178,-0.018,-0.0838,-0.0155,-0.0368,-0.0322,0,0.04,-0.0405,-0.029,-0.106,-0.0358,0.0273,0.0175,-0.023,-0.0133,-0.0703,-0.06,-0.058,-0.0548,-0.0133,-0.0142,-0.055,-0.0555,-0.0458,-0.062,-0.03,0.0345,-0.0657,-0.0722,-0.0495,-0.052,-0.0438,-0.0628,-0.0272,-0.034,-0.0873,-0.0805,-0.091,-0.0768,-0.0602,-0.0585
-0.0157,0.001,-0.0325,-0.0697,0.0635,0,-0.0248,-0.021,-0.071,-0.01,-0.0323,-0.011,0.0183,0.0078,-0.0415,-0.0347,-0.061,-0.0358,0.0338,-0.03,-0.0255,-0.018,-0.072,-0.0615,-0.0442,-0.0738,0.007,-0.0312,-0.056,-0.0582,-0.049,-0.056,-0.007,-0.0185,-0.0695,-0.0743,-0.0515,-0.0537,-0.0438,-0.0578,-0.0455,-0.0375,-0.0898,-0.0825,-0.0992,-0.0803,-0.0642,-0.0583
-0.0212,0.0165,0.0293,-0.059,0.0453,0.0057,-0.0193,-0.0187,-0.069,-0.0237,-0.0143,-0.0575,0.0072,0.0485,-0.0385,-0.0322,-0.0772,-0.0803,0.0702,0.0068,-0.022,-0.0135,-0.068,-0.059,-0.0617,-0.1013,0,0.0072,-0.0508,-0.0535,-0.0463,-0.0535,-0.005,0.0145,-0.0655,-0.0717,-0.0425,-0.0433,-0.0417,-0.056,-0.0292,-0.0388,-0.085,-0.0798,-0.0732,-0.0648,-0.057,-0.0548
-0.0195,-0.035,-0.058,0.0063,0.022,0.0235,-0.0205,0.0008,-0.0507,-0.0357,0.0295,0.0113,0.0107,0.0485,-0.037,-0.028,-0.075,-0.057,0.003,0.032,-0.0177,-0.0093,-0.0652,-0.0557,-0.075,-0.0728,-0.0133,-0.007,-0.0475,-0.0505,-0.0413,-0.0538,-0.0225,-0.0307,-0.0633,-0.0688,-0.039,-0.0425,-0.0432,-0.0415,-0.0307,-0.0228,-0.0825,-0.076,-0.0707,-0.0648,-0.0537,-0.0553
-0.0195,-0.008,0.0172,0.0128,0.0165,0.0483,-0.0215,-0.008,-0.068,-0.0155,-0.0278,-0.0475,0.0375,0.0118,-0.0353,-0.029,-0.075,-0.057,0.088,-0.007,-0.0165,-0.011,-0.0657,-0.0565,-0.075,-0.054,0,-0.038,-0.0483,-0.0507,-0.0408,-0.0538,-0.0178,-0.0072,-0.0623,-0.069,-0.0385,-0.0427,-0.0445,-0.0518,-0.035,-0.043,-0.0823,-0.0748,-0.0743,-0.0663,-0.0542,-0.0558
-0.018,-0.011,-0.0113,0.0535,0.0335,0.0483,-0.0178,-0.0107,-0.06,-0.0332,0,0,0.0107,-0.0037,-0.0318,-0.032,-0.0465,-0.0068,0.0738,0,-0.017,-0.0133,-0.0672,-0.0565,-0.057,-0.1143,0.0035,0.0148,-0.0493,-0.0513,-0.05,-0.0563,-0.029,-0.0335,-0.064,-0.0688,-0.0408,-0.0445,-0.0352,-0.0587,-0.0197,-0.0385,-0.083,-0.0758,-0.0775,-0.0653,-0.0545,-0.0553
-0.0302,-0.008,0.0172,-0.0062,0.0572,-0.0113,-0.0118,-0.004,-0.066,-0.0027,-0.0232,0,0.0492,0.0235,-0.0358,-0.0305,-0.034,-0.045,0.0338,0.0248,-0.0195,-0.0112,-0.0692,-0.054,-0.0755,-0.0933,-0.0295,-0.0035,-0.05,-0.0522,-0.0433,-0.051,0,0.0058,-0.0635,-0.0703,-0.0447,-0.0473,-0.0393,-0.045,-0.0257,-0.0328,-0.083,-0.0768,-0.0808,-0.0703,-0.0532,-0.0565
-0.0405,-0.002,-0.048,-0.042,0.0825,-0.0057,-0.0203,-0.004,-0.0855,-0.0437,-0.0453,-0.027,0.0297,0.0485,-0.0425,-0.0297,-0.061,-0.0857,0.0468,0.0358,-0.0215,-0.0148,-0.0722,-0.0597,-0.0465,-0.0202,0.021,-0.0142,-0.0518,-0.0542,-0.0478,-0.0565,-0.005,0.0088,-0.066,-0.0717,-0.0452,-0.0488,-0.0412,-0.054,-0.037,-0.0297,-0.085,-0.0785,-0.0862,-0.073,-0.0585,-0.0583
-0.0357,-0.0285,-0.0055,-0.0697,0.0165,0.0057,-0.0183,-0.0152,-0.0518,-0.0677,-0.0323,0.0055,0,-0.0257,-0.0433,-0.0332,-0.0795,-0.0915,0.021,-0.0202,-0.023,-0.0162,-0.073,-0.059,-0.0345,-0.0933,0,0.0222,-0.055,-0.0565,-0.05,-0.0598,-0.0178,0.0103,-0.0678,-0.0728,-0.0495,-0.051,-0.0447,-0.0455,-0.0337,-0.036,-0.0898,-0.0813,-0.0915,-0.077,-0.0627,-0.0595
-0.034,0.001,-0.0055,-0.0245,0.0572,0.0115,-0.02,-0.0155,-0.063,-0.0197,-0.041,-0.0812,0.0107,0.0485,-0.046,-0.0315,-0.0365,-0.048,0.012,0,-0.0272,-0.0173,-0.0743,-0.0633,-0.0622,-0.0695,0.0102,-0.007,-0.057,-0.0582,-0.0568,-0.0555,-0.006,-0.0088,-0.0693,-0.0743,-0.053,-0.0528,-0.0452,-0.0638,-0.0397,-0.0445,-0.0913,-0.0835,-0.0972,-0.0815,-0.0637,-0.063
-0.0312,-0.007,-0.043,-0.0125,0.0955,0.0235,-0.0152,-0.0118,-0.0855,-0.0762,-0.0143,-0.0375,-0.0072,0.057,-0.042,-0.0305,-0.0995,-0.054,0.0773,-0.007,-0.026,-0.015,-0.0753,-0.058,-0.0597,-0.1052,-0.0133,-0.038,-0.054,-0.056,-0.0515,-0.0603,-0.0465,-0.0157,-0.0685,-0.0725,-0.0452,-0.0478,-0.0602,-0.043,-0.0322,-0.041,-0.0865,-0.0785,-0.0852,-0.0725,-0.0608,-0.0595
